Wavelength (nm),ITICinCB_n,ITICinCB_k
300,1.63425,0.19052
301,1.64087,0.19686
302,1.64719,0.20246
303,1.65332,0.20753
304,1.65912,0.21178
305,1.66435,0.21456
306,1.66924,0.21649
307,1.67339,0.21654
308,1.67694,0.21518
309,1.68007,0.21286
310,1.68225,0.209
311,1.68405,0.20486
312,1.68533,0.2003
313,1.68591,0.19582
314,1.68615,0.19155
315,1.68575,0.18793
316,1.6849,0.18509
317,1.68376,0.18275
318,1.68219,0.18139
319,1.68056,0.18037
320,1.67883,0.17976
321,1.6772,0.17957
322,1.67569,0.17952
323,1.67445,0.17965
324,1.67358,0.17981
325,1.67295,0.17997
326,1.6728,0.18012
327,1.67286,0.18025
328,1.67313,0.18035
329,1.6737,0.18039
330,1.67437,0.1804
331,1.67521,0.18036
332,1.67615,0.18024
333,1.67715,0.18007
334,1.67824,0.17977
335,1.67938,0.17934
336,1.68058,0.1788
337,1.68187,0.17797
338,1.68322,0.17697
339,1.68464,0.17571
340,1.68615,0.17411
341,1.68771,0.1723
342,1.68938,0.17003
343,1.69108,0.16748
344,1.6928,0.16469
345,1.69442,0.16147
346,1.69594,0.1581
347,1.6973,0.15449
348,1.69835,0.15065
349,1.69923,0.1467
350,1.69966,0.14256
351,1.69973,0.1383
352,1.69951,0.13398
353,1.69859,0.12955
354,1.69739,0.12515
355,1.69575,0.12077
356,1.6936,0.11655
357,1.69117,0.11242
358,1.68823,0.10856
359,1.68491,0.10498
360,1.68134,0.10158
361,1.67717,0.09876
362,1.67277,0.09622
363,1.66802,0.0941
364,1.66294,0.09254
365,1.65773,0.09124
366,1.65239,0.09043
367,1.64707,0.08995
368,1.64178,0.0897
369,1.63673,0.0899
370,1.63191,0.09029
371,1.62734,0.09091
372,1.62336,0.09182
373,1.6197,0.09286
374,1.61668,0.0941
375,1.61421,0.09546
376,1.61207,0.0969
377,1.61056,0.09842
378,1.6093,0.09994
379,1.60833,0.10145
380,1.60771,0.10288
381,1.60721,0.10425
382,1.60689,0.10549
383,1.60667,0.10656
384,1.6065,0.10751
385,1.60633,0.10816
386,1.60613,0.10863
387,1.6059,0.10893
388,1.60561,0.10894
389,1.6053,0.10884
390,1.60496,0.10857
391,1.60458,0.10816
392,1.60419,0.10768
393,1.60377,0.10706
394,1.60334,0.10639
395,1.6029,0.10568
396,1.60244,0.10492
397,1.60198,0.10415
398,1.60152,0.10338
399,1.60105,0.10262
400,1.60058,0.10187
401,1.6001,0.10113
402,1.59961,0.10041
403,1.59911,0.09969
404,1.59859,0.09899
405,1.59805,0.0983
406,1.59749,0.09762
407,1.59689,0.09694
408,1.59628,0.09628
409,1.59564,0.09563
410,1.59496,0.09498
411,1.59426,0.09434
412,1.5935,0.09371
413,1.59272,0.09309
414,1.59191,0.09248
415,1.59108,0.09189
416,1.59023,0.0913
417,1.58935,0.09073
418,1.58847,0.09019
419,1.58758,0.08965
420,1.58668,0.08914
421,1.58578,0.08866
422,1.58488,0.08819
423,1.58399,0.08776
424,1.58311,0.08734
425,1.58223,0.08695
426,1.58138,0.0866
427,1.58053,0.08627
428,1.57971,0.08597
429,1.57889,0.08568
430,1.57809,0.08542
431,1.57729,0.08517
432,1.57649,0.08492
433,1.5757,0.08469
434,1.5749,0.08446
435,1.57411,0.08423
436,1.57331,0.08399
437,1.5725,0.08375
438,1.57169,0.08351
439,1.57086,0.08324
440,1.57003,0.08297
441,1.56918,0.08268
442,1.56831,0.08236
443,1.56744,0.08204
444,1.56654,0.08172
445,1.56563,0.0814
446,1.56471,0.08108
447,1.56376,0.0808
448,1.56281,0.08053
449,1.56184,0.08031
450,1.56085,0.08013
451,1.55985,0.07999
452,1.55883,0.07992
453,1.55779,0.07992
454,1.55675,0.07996
455,1.55568,0.08013
456,1.55461,0.08035
457,1.55351,0.08066
458,1.5524,0.08109
459,1.55128,0.08158
460,1.55015,0.08219
461,1.549,0.08286
462,1.54784,0.08358
463,1.54666,0.08439
464,1.54547,0.08523
465,1.54427,0.0861
466,1.54306,0.08699
467,1.54185,0.08789
468,1.54062,0.0888
469,1.53938,0.0897
470,1.53813,0.0906
471,1.53687,0.09145
472,1.53561,0.09228
473,1.53434,0.09307
474,1.53306,0.0938
475,1.53177,0.09448
476,1.53047,0.09508
477,1.52917,0.09562
478,1.52786,0.09612
479,1.52652,0.09656
480,1.52518,0.09697
481,1.52382,0.09738
482,1.52242,0.09778
483,1.52101,0.09819
484,1.51957,0.09863
485,1.5181,0.09912
486,1.51661,0.09963
487,1.51507,0.10023
488,1.51349,0.1009
489,1.51189,0.10163
490,1.51023,0.1025
491,1.50854,0.10345
492,1.5068,0.10452
493,1.50501,0.10574
494,1.50318,0.10706
495,1.50129,0.10858
496,1.49936,0.11023
497,1.49738,0.11201
498,1.49535,0.11397
499,1.49328,0.11602
500,1.49118,0.11817
501,1.48904,0.12042
502,1.48687,0.12272
503,1.48467,0.1251
504,1.48245,0.12751
505,1.48021,0.12995
506,1.47794,0.1324
507,1.47566,0.13485
508,1.47336,0.13729
509,1.47105,0.13969
510,1.46874,0.14206
511,1.46641,0.14436
512,1.46408,0.1466
513,1.46175,0.14879
514,1.45941,0.15082
515,1.45707,0.15279
516,1.45472,0.15465
517,1.45239,0.15635
518,1.45004,0.15797
519,1.4477,0.15948
520,1.44534,0.16093
521,1.44297,0.16234
522,1.44058,0.16371
523,1.43817,0.1651
524,1.43573,0.1665
525,1.43326,0.16797
526,1.43077,0.16949
527,1.42823,0.1711
528,1.42565,0.17284
529,1.42305,0.17466
530,1.42038,0.1767
531,1.41768,0.17889
532,1.41493,0.18122
533,1.41212,0.18386
534,1.40927,0.18666
535,1.40637,0.18973
536,1.4034,0.19311
537,1.4004,0.19667
538,1.39733,0.20067
539,1.39421,0.20494
540,1.39105,0.20947
541,1.38783,0.21448
542,1.38459,0.21967
543,1.38132,0.22517
544,1.37805,0.23095
545,1.37478,0.23687
546,1.37153,0.24305
547,1.3683,0.24936
548,1.36508,0.25578
549,1.36193,0.26237
550,1.35881,0.269
551,1.35575,0.27569
552,1.35276,0.28242
553,1.34982,0.28914
554,1.34697,0.29584
555,1.34419,0.30249
556,1.34147,0.3091
557,1.33888,0.31555
558,1.33635,0.32192
559,1.33391,0.32816
560,1.33158,0.33417
561,1.32932,0.34006
562,1.32717,0.34569
563,1.32513,0.35108
564,1.32314,0.3563
565,1.3213,0.36112
566,1.31952,0.36576
567,1.31782,0.3702
568,1.31621,0.37442
569,1.31465,0.37857
570,1.31317,0.3826
571,1.31174,0.38661
572,1.31035,0.39061
573,1.30903,0.39467
574,1.30775,0.39882
575,1.30649,0.40305
576,1.3053,0.40752
577,1.30412,0.41213
578,1.30299,0.41699
579,1.3019,0.42218
580,1.30083,0.42756
581,1.29981,0.43342
582,1.29882,0.43961
583,1.29787,0.44609
584,1.29698,0.45323
585,1.29613,0.46069
586,1.29533,0.46865
587,1.29461,0.47727
588,1.29394,0.48624
589,1.29337,0.49596
590,1.29289,0.50625
591,1.29247,0.51695
592,1.29224,0.52866
593,1.2921,0.54077
594,1.2921,0.55345
595,1.29236,0.56678
596,1.29277,0.58039
597,1.29348,0.59448
598,1.29446,0.60883
599,1.29563,0.62335
600,1.29727,0.63812
601,1.29914,0.65292
602,1.30129,0.66777
603,1.30389,0.68255
604,1.30672,0.69727
605,1.30994,0.71183
606,1.31352,0.72614
607,1.31733,0.7403
608,1.32162,0.75402
609,1.32617,0.76745
610,1.33098,0.78057
611,1.33624,0.79306
612,1.34171,0.80523
613,1.3475,0.81685
614,1.35364,0.82784
615,1.35997,0.83846
616,1.36668,0.84826
617,1.37364,0.85749
618,1.38079,0.86626
619,1.38834,0.87399
620,1.39607,0.88126
621,1.40406,0.8878
622,1.41236,0.89342
623,1.42083,0.89856
624,1.42962,0.90276
625,1.43861,0.90637
626,1.44775,0.90958
627,1.4572,0.91198
628,1.46676,0.91412
629,1.47648,0.91589
630,1.48639,0.91726
631,1.4964,0.91847
632,1.50656,0.91943
633,1.51683,0.92026
634,1.52717,0.92101
635,1.53763,0.92171
636,1.54814,0.92244
637,1.5587,0.9232
638,1.56932,0.92411
639,1.57996,0.92513
640,1.59062,0.92634
641,1.60128,0.92782
642,1.61193,0.92947
643,1.62255,0.93153
644,1.63314,0.93388
645,1.64369,0.9365
646,1.65416,0.93972
647,1.66457,0.94321
648,1.67491,0.94717
649,1.68513,0.95172
650,1.69529,0.95659
651,1.7053,0.96216
652,1.71521,0.96825
653,1.72503,0.97471
654,1.73465,0.9821
655,1.74419,0.98991
656,1.75359,0.9983
657,1.76282,1.00749
658,1.77198,1.01704
659,1.78103,1.02721
660,1.79003,1.03774
661,1.79901,1.04851
662,1.80797,1.05963
663,1.81696,1.07084
664,1.82597,1.08215
665,1.83507,1.09346
666,1.84422,1.10474
667,1.85347,1.1159
668,1.86285,1.12685
669,1.87231,1.13765
670,1.88196,1.14804
671,1.89174,1.15812
672,1.90164,1.16792
673,1.9118,1.17705
674,1.92208,1.18584
675,1.93256,1.19408
676,1.94329,1.2016
677,1.95415,1.20871
678,1.96531,1.21496
679,1.97669,1.22054
680,1.98822,1.22564
681,2.00016,1.22952
682,2.01228,1.23285
683,2.02465,1.23542
684,2.03741,1.23685
685,2.05037,1.23769
686,2.0637,1.23742
687,2.07739,1.23617
688,2.0913,1.23429
689,2.10575,1.23095
690,2.12051,1.22684
691,2.13559,1.22189
692,2.15127,1.21546
693,2.16725,1.20834
694,2.18374,1.20004
695,2.20075,1.19059
696,2.21805,1.18049
697,2.2359,1.16915
698,2.25405,1.15714
699,2.27245,1.14456
700,2.29128,1.13096
701,2.31026,1.11699
702,2.32947,1.10245
703,2.34888,1.08732
704,2.36838,1.0719
705,2.38802,1.05601
706,2.40771,1.03982
707,2.42742,1.02343
708,2.44711,1.00669
709,2.46674,0.98984
710,2.48631,0.97285
711,2.5057,0.95572
712,2.52497,0.93854
713,2.54402,0.92131
714,2.56278,0.90407
715,2.58137,0.88685
716,2.59952,0.86968
717,2.61736,0.85257
718,2.63491,0.83552
719,2.65184,0.81863
720,2.66845,0.80182
721,2.68456,0.78516
722,2.70003,0.76868
723,2.71513,0.75232
724,2.72946,0.73619
725,2.7432,0.72024
726,2.75651,0.70442
727,2.76873,0.68893
728,2.78046,0.67359
729,2.79152,0.65845
730,2.80154,0.64361
731,2.81101,0.62894
732,2.8195,0.61454
733,2.82706,0.60041
734,2.83403,0.58644
735,2.83966,0.57284
736,2.84452,0.55944
737,2.84861,0.54625
738,2.85135,0.5334
739,2.8535,0.5207
740,2.85473,0.50823
741,2.85497,0.49601
742,2.85468,0.48391
743,2.85337,0.47205
744,2.85139,0.46036
745,2.84893,0.44878
746,2.8454,0.43745
747,2.84146,0.42622
748,2.83693,0.41514
749,2.83162,0.40424
750,2.82595,0.39343
751,2.81963,0.38278
752,2.81278,0.37228
753,2.80561,0.36186
754,2.79776,0.35162
755,2.78959,0.34147
756,2.78109,0.33143
757,2.77203,0.32156
758,2.76275,0.31177
759,2.75311,0.3021
760,2.74311,0.29257
761,2.73292,0.28313
762,2.72239,0.27384
763,2.71165,0.26466
764,2.70076,0.25556
765,2.68958,0.24666
766,2.67831,0.23783
767,2.6669,0.22913
768,2.65534,0.22059
769,2.64373,0.21214
770,2.63204,0.20385
771,2.62031,0.19571
772,2.60856,0.18766
773,2.59683,0.17982
774,2.58513,0.1721
775,2.57346,0.1645
776,2.56192,0.15713
777,2.55045,0.14988
778,2.5391,0.14279
779,2.52796,0.13592
780,2.51692,0.12917
781,2.50615,0.12266
782,2.4956,0.11634
783,2.48521,0.11015
784,2.47524,0.10427
785,2.46546,0.09854
786,2.45593,0.09298
787,2.44677,0.08771
788,2.43778,0.08256
789,2.42909,0.07764
790,2.42067,0.07294
791,2.41242,0.06836
792,2.40451,0.06404
793,2.39679,0.05988
794,2.38925,0.05585
795,2.38205,0.05209
796,2.37499,0.04845
797,2.36815,0.04498
798,2.36156,0.04171
799,2.35511,0.03856
800,2.34891,0.0356,