Wavelength (nm),IDTT4FIC_n,IDTT4FIC_k
210,1.687386,0.377056
211,1.696696,0.377929
212,1.704806,0.376833
213,1.711558,0.374608
214,1.71713,0.371958
215,1.721982,0.369252
216,1.726434,0.36654
217,1.730725,0.363859
218,1.735196,0.361197
219,1.740219,0.358141
220,1.745701,0.354086
221,1.751208,0.348531
222,1.755842,0.341181
223,1.758568,0.33271
224,1.759183,0.324159
225,1.757957,0.316434
226,1.755655,0.310253
227,1.753327,0.30551
228,1.75142,0.301678
229,1.75007,0.298298
230,1.749195,0.294971
231,1.748531,0.291526
232,1.747944,0.287997
233,1.747393,0.28441
234,1.746884,0.280785
235,1.746486,0.277096
236,1.746227,0.273212
237,1.746052,0.268997
238,1.745853,0.264332
239,1.745454,0.259117
240,1.744619,0.253371
241,1.743192,0.247194
242,1.741055,0.240676
243,1.738088,0.233903
244,1.734116,0.226988
245,1.728981,0.220202
246,1.722672,0.213855
247,1.71527,0.208239
248,1.706934,0.203629
249,1.697962,0.200236
250,1.68866,0.198059
251,1.679211,0.197046
252,1.669754,0.197155
253,1.660404,0.198344
254,1.651249,0.200582
255,1.642378,0.203864
256,1.633901,0.208196
257,1.625951,0.213574
258,1.618685,0.21999
259,1.612315,0.227416
260,1.607102,0.235695
261,1.603193,0.244575
262,1.600656,0.25381
263,1.599514,0.263167
264,1.599756,0.272427
265,1.601352,0.281371
266,1.604235,0.289768
267,1.608281,0.297399
268,1.613326,0.304072
269,1.619168,0.309621
270,1.625552,0.313906
271,1.632137,0.316893
272,1.638662,0.318699
273,1.644962,0.319446
274,1.65091,0.319244
275,1.656394,0.318191
276,1.661305,0.316384
277,1.66551,0.313945
278,1.668926,0.311066
279,1.671532,0.307927
280,1.673341,0.304693
281,1.67439,0.301516
282,1.674742,0.298539
283,1.674497,0.295883
284,1.673769,0.293615
285,1.672646,0.291786
286,1.671217,0.290444
287,1.669579,0.289633
288,1.66784,0.289393
289,1.666142,0.289757
290,1.664687,0.29069
291,1.663612,0.292041
292,1.662969,0.293664
293,1.662773,0.295421
294,1.663002,0.297188
295,1.663606,0.298851
296,1.664488,0.300307
297,1.66549,0.301532
298,1.666516,0.302601
299,1.667529,0.303587
300,1.668526,0.304554
301,1.669523,0.305561
302,1.670558,0.30666
303,1.671699,0.307894
304,1.673066,0.309271
305,1.674757,0.310694
306,1.676796,0.312058
307,1.679178,0.313267
308,1.681873,0.314233
309,1.684833,0.314877
310,1.687989,0.315128
311,1.691239,0.314927
312,1.694441,0.314275
313,1.697504,0.31324
314,1.70038,0.311886
315,1.703038,0.310271
316,1.705462,0.308448
317,1.707643,0.306467
318,1.709584,0.304373
319,1.711295,0.302208
320,1.712798,0.3
321,1.714111,0.297762
322,1.715243,0.295507
323,1.7162,0.293245
324,1.716989,0.29099
325,1.717616,0.288751
326,1.718086,0.28654
327,1.718405,0.284367
328,1.718571,0.282244
329,1.718589,0.280192
330,1.718468,0.27823
331,1.718223,0.27638
332,1.717872,0.27466
333,1.717437,0.273086
334,1.716946,0.271676
335,1.716432,0.270442
336,1.715938,0.269397
337,1.715533,0.268539
338,1.715278,0.267818
339,1.715198,0.267171
340,1.715301,0.266543
341,1.715583,0.265881
342,1.716029,0.265137
343,1.716617,0.264264
344,1.717313,0.263219
345,1.718072,0.261965
346,1.718826,0.260469
347,1.719483,0.258744
348,1.719991,0.256842
349,1.720323,0.254812
350,1.720463,0.252697
351,1.720408,0.250539
352,1.720159,0.248378
353,1.719724,0.246251
354,1.719121,0.244191
355,1.718372,0.242233
356,1.717515,0.240402
357,1.716603,0.238704
358,1.715666,0.237119
359,1.714724,0.235631
360,1.71379,0.234224
361,1.712873,0.232885
362,1.71198,0.231598
363,1.711116,0.230351
364,1.710281,0.229132
365,1.709476,0.227929
366,1.708701,0.22673
367,1.707951,0.225526
368,1.707221,0.224311
369,1.706509,0.223076
370,1.705809,0.221817
371,1.705118,0.220527
372,1.704432,0.219201
373,1.703744,0.217834
374,1.703049,0.216421
375,1.702341,0.214956
376,1.701611,0.213436
377,1.700852,0.211856
378,1.70005,0.210214
379,1.699192,0.208511
380,1.698269,0.206755
381,1.697275,0.20495
382,1.696203,0.203102
383,1.695049,0.201216
384,1.693808,0.199295
385,1.692475,0.197346
386,1.691046,0.195372
387,1.689517,0.193377
388,1.687882,0.191366
389,1.686136,0.189343
390,1.684269,0.187312
391,1.682271,0.185288
392,1.680139,0.183284
393,1.677872,0.181315
394,1.67547,0.179394
395,1.672938,0.177535
396,1.670278,0.175749
397,1.667498,0.17405
398,1.664603,0.172449
399,1.661602,0.170958
400,1.658506,0.169587
401,1.655327,0.168348
402,1.652082,0.167249
403,1.648793,0.166297
404,1.645481,0.165484
405,1.64216,0.164803
406,1.638839,0.164244
407,1.635526,0.163801
408,1.63223,0.163467
409,1.628954,0.163234
410,1.625705,0.163095
411,1.622488,0.163045
412,1.619304,0.163075
413,1.616159,0.16318
414,1.613055,0.163355
415,1.609996,0.163591
416,1.606986,0.163885
417,1.604028,0.164226
418,1.601126,0.164604
419,1.598279,0.165008
420,1.595486,0.165428
421,1.592744,0.165855
422,1.590048,0.166279
423,1.587395,0.166691
424,1.584778,0.167081
425,1.582191,0.167443
426,1.579626,0.167766
427,1.577072,0.168045
428,1.57452,0.16827
429,1.571955,0.168436
430,1.569362,0.168536
431,1.566716,0.168567
432,1.563995,0.168543
433,1.561186,0.168476
434,1.558279,0.16838
435,1.555268,0.168268
436,1.552148,0.168151
437,1.548915,0.168043
438,1.545566,0.167954
439,1.5421,0.167896
440,1.538516,0.16788
441,1.534815,0.167916
442,1.530998,0.168015
443,1.527067,0.168188
444,1.523024,0.168443
445,1.518874,0.168792
446,1.514619,0.169243
447,1.510267,0.169805
448,1.505823,0.170485
449,1.501291,0.171289
450,1.496678,0.172225
451,1.491989,0.1733
452,1.487231,0.174519
453,1.48241,0.175891
454,1.477532,0.17742
455,1.472607,0.179113
456,1.467642,0.180976
457,1.462646,0.183016
458,1.457628,0.185237
459,1.452601,0.187646
460,1.447575,0.190247
461,1.442564,0.193045
462,1.437585,0.196045
463,1.432658,0.199248
464,1.427805,0.202647
465,1.423043,0.206229
466,1.418383,0.209982
467,1.413834,0.213894
468,1.409403,0.217954
469,1.405097,0.222149
470,1.400922,0.22647
471,1.39688,0.230903
472,1.392976,0.23544
473,1.389211,0.240068
474,1.385586,0.244777
475,1.382103,0.249556
476,1.378761,0.254396
477,1.375558,0.259286
478,1.372493,0.264216
479,1.369563,0.269177
480,1.366764,0.27416
481,1.364091,0.279157
482,1.361538,0.284161
483,1.3591,0.289167
484,1.356773,0.29417
485,1.354552,0.299166
486,1.352431,0.30415
487,1.350408,0.309116
488,1.348475,0.314062
489,1.346629,0.318983
490,1.344863,0.323874
491,1.343172,0.328733
492,1.341549,0.333557
493,1.339987,0.338342
494,1.33848,0.343085
495,1.33702,0.347785
496,1.335598,0.352439
497,1.334204,0.357045
498,1.332829,0.361604
499,1.33146,0.366114
500,1.330081,0.370577
501,1.32867,0.375002
502,1.327212,0.379411
503,1.325705,0.383826
504,1.324148,0.388267
505,1.322545,0.39275
506,1.320904,0.397293
507,1.319232,0.401911
508,1.317544,0.406619
509,1.315856,0.411429
510,1.314186,0.416352
511,1.312566,0.421392
512,1.311026,0.426535
513,1.30958,0.43176
514,1.308235,0.437047
515,1.306994,0.442378
516,1.305857,0.447738
517,1.30482,0.453111
518,1.303878,0.458484
519,1.303021,0.463844
520,1.302239,0.46918
521,1.301516,0.474483
522,1.300831,0.479751
523,1.300164,0.484995
524,1.299509,0.490227
525,1.298861,0.495457
526,1.298217,0.500697
527,1.297578,0.505953
528,1.296945,0.511236
529,1.29632,0.516551
530,1.295707,0.521906
531,1.295111,0.527308
532,1.294537,0.532761
533,1.293993,0.538268
534,1.293489,0.54383
535,1.293029,0.549444
536,1.292617,0.555108
537,1.292256,0.560822
538,1.29195,0.566583
539,1.291702,0.57239
540,1.291514,0.578242
541,1.291389,0.584137
542,1.29133,0.590074
543,1.29134,0.59605
544,1.291421,0.602065
545,1.291577,0.608115
546,1.29181,0.614197
547,1.292122,0.620306
548,1.292514,0.626439
549,1.292987,0.632593
550,1.293539,0.638765
551,1.294173,0.644952
552,1.294887,0.651149
553,1.295681,0.657356
554,1.296555,0.663568
555,1.297509,0.669784
556,1.298541,0.676
557,1.299652,0.682215
558,1.300841,0.688424
559,1.302105,0.694624
560,1.303444,0.700813
561,1.304854,0.706988
562,1.306333,0.713146
563,1.307878,0.719286
564,1.309486,0.725406
565,1.311153,0.731503
566,1.312875,0.737578
567,1.314648,0.743629
568,1.316467,0.749656
569,1.318325,0.75566
570,1.320214,0.761645
571,1.322129,0.76762
572,1.32407,0.773592
573,1.326039,0.779569
574,1.328037,0.785556
575,1.330067,0.79156
576,1.332134,0.797583
577,1.334242,0.80363
578,1.336396,0.809705
579,1.338602,0.81581
580,1.340866,0.821947
581,1.343195,0.828117
582,1.345599,0.834319
583,1.348086,0.840553
584,1.350667,0.84681
585,1.353346,0.85308
586,1.356125,0.859355
587,1.359004,0.865628
588,1.361983,0.871893
589,1.365061,0.878144
590,1.368238,0.884375
591,1.371511,0.890581
592,1.374879,0.896757
593,1.37834,0.902899
594,1.381892,0.909003
595,1.385532,0.915065
596,1.389258,0.921082
597,1.393068,0.927048
598,1.396959,0.932961
599,1.400928,0.938815
600,1.40497,0.944607
601,1.409081,0.950333
602,1.413254,0.95599
603,1.417485,0.961576
604,1.421769,0.967089
605,1.426099,0.972528
606,1.430468,0.97789
607,1.434871,0.983177
608,1.4393,0.988386
609,1.443748,0.99352
610,1.448207,0.998579
611,1.452667,1.003564
612,1.457117,1.008482
613,1.461548,1.013343
614,1.465958,1.018158
615,1.470345,1.022936
616,1.474709,1.027685
617,1.479049,1.032412
618,1.483366,1.037124
619,1.487662,1.041828
620,1.491938,1.046529
621,1.496194,1.051234
622,1.500433,1.055947
623,1.504657,1.060673
624,1.508866,1.065418
625,1.513063,1.070187
626,1.517247,1.074983
627,1.521419,1.079814
628,1.525578,1.08469
629,1.52973,1.089621
630,1.53388,1.094619
631,1.538039,1.099689
632,1.542215,1.104842
633,1.546418,1.110081
634,1.55066,1.115412
635,1.554952,1.120839
636,1.559307,1.126365
637,1.563737,1.131993
638,1.568255,1.137723
639,1.572877,1.143556
640,1.577616,1.149492
641,1.58249,1.155527
642,1.587515,1.161657
643,1.592714,1.167877
644,1.598109,1.17417
645,1.603714,1.180511
646,1.609534,1.186878
647,1.615571,1.193253
648,1.621826,1.199617
649,1.628297,1.205956
650,1.634983,1.212254
651,1.641881,1.218499
652,1.648989,1.224677
653,1.656302,1.230777
654,1.663817,1.236788
655,1.671529,1.242699
656,1.679437,1.248501
657,1.687534,1.254184
658,1.695819,1.259739
659,1.704288,1.265156
660,1.712941,1.270426
661,1.721779,1.275534
662,1.730797,1.280461
663,1.739984,1.285188
664,1.749326,1.289701
665,1.75881,1.293987
666,1.768421,1.298034
667,1.778141,1.301833
668,1.787955,1.305375
669,1.797844,1.308653
670,1.807792,1.311662
671,1.817779,1.314396
672,1.827786,1.316851
673,1.837794,1.319025
674,1.847782,1.320917
675,1.857729,1.322526
676,1.867611,1.323854
677,1.877403,1.324903
678,1.887077,1.325679
679,1.896599,1.326196
680,1.905944,1.326484
681,1.915099,1.326571
682,1.924058,1.326479
683,1.932814,1.326231
684,1.941364,1.325846
685,1.949705,1.325341
686,1.957832,1.324735
687,1.965747,1.324042
688,1.973446,1.323278
689,1.980929,1.322458
690,1.988194,1.321596
691,1.99524,1.320705
692,2.002065,1.3198
693,2.008668,1.318893
694,2.015046,1.317999
695,2.021194,1.31713
696,2.027108,1.316302
697,2.032778,1.315531
698,2.038189,1.31484
699,2.043333,1.314272
700,2.04822,1.313865
701,2.052863,1.313655
702,2.057281,1.313674
703,2.061496,1.313951
704,2.06553,1.314512
705,2.069409,1.315382
706,2.073161,1.316583
707,2.076815,1.318136
708,2.080404,1.320059
709,2.08396,1.322369
710,2.087518,1.325079
711,2.091116,1.328201
712,2.094793,1.331746
713,2.09859,1.335721
714,2.102551,1.340129
715,2.106724,1.344972
716,2.11116,1.350249
717,2.115915,1.35595
718,2.121058,1.362057
719,2.126653,1.368517
720,2.132732,1.375269
721,2.139315,1.38226
722,2.146415,1.389443
723,2.154041,1.396774
724,2.162196,1.404212
725,2.170884,1.411719
726,2.180102,1.41926
727,2.18985,1.4268
728,2.200123,1.434309
729,2.210915,1.441756
730,2.222222,1.449115
731,2.234034,1.456359
732,2.246346,1.463464
733,2.259149,1.470407
734,2.272436,1.477166
735,2.286197,1.483721
736,2.300424,1.490052
737,2.315111,1.496142
738,2.330252,1.501972
739,2.345842,1.507524
740,2.361877,1.512776
741,2.37835,1.5177
742,2.395247,1.522272
743,2.412553,1.526472
744,2.430251,1.530281
745,2.448326,1.53368
746,2.466762,1.536655
747,2.485541,1.539192
748,2.504648,1.541278
749,2.524068,1.5429
750,2.543784,1.544049
751,2.56378,1.544713
752,2.584044,1.544886
753,2.60456,1.544557
754,2.625316,1.543719
755,2.646301,1.542366
756,2.667502,1.540489
757,2.688908,1.538082
758,2.710513,1.535138
759,2.732309,1.531651
760,2.754292,1.527612
761,2.776461,1.523013
762,2.798824,1.517841
763,2.821392,1.512063
764,2.844152,1.505635
765,2.867083,1.498521
766,2.89016,1.490692
767,2.913354,1.482117
768,2.936632,1.472774
769,2.959965,1.462637
770,2.983315,1.451688
771,3.006649,1.439907
772,3.02993,1.427276
773,3.053119,1.413779
774,3.076177,1.399402
775,3.099065,1.38413
776,3.121739,1.36795
777,3.144156,1.350849
778,3.166269,1.332817
779,3.188028,1.313843
780,3.209382,1.293915
781,3.230275,1.273024
782,3.250645,1.251161
783,3.270424,1.228318
784,3.289535,1.204489
785,3.307884,1.17967
786,3.325354,1.153862
787,3.341785,1.127134
788,3.357083,1.099612
789,3.3712,1.071415
790,3.384106,1.042646
791,3.395782,1.0134
792,3.406218,0.983766
793,3.415409,0.953825
794,3.423356,0.923656
795,3.430062,0.893332
796,3.435533,0.862925
797,3.43978,0.832501
798,3.442813,0.802128
799,3.444647,0.77187
800,3.445299,0.741788
801,3.444787,0.711948
802,3.443131,0.682407
803,3.440357,0.653227
804,3.436489,0.624467
805,3.431559,0.59619
806,3.425598,0.568453
807,3.418646,0.54132
808,3.410745,0.514849
809,3.401947,0.489105
810,3.392311,0.46415
811,3.38191,0.440045
812,3.37085,0.416854
813,3.359262,0.394578
814,3.347237,0.373185
815,3.334841,0.352641
816,3.322127,0.33292
817,3.309139,0.313993
818,3.295916,0.295836
819,3.282495,0.278428
820,3.268907,0.261745
821,3.25518,0.245768
822,3.241343,0.230478
823,3.227417,0.215854
824,3.213428,0.201879
825,3.199396,0.188536
826,3.185342,0.175808
827,3.171283,0.163676
828,3.157239,0.152126
829,3.143225,0.141141
830,3.129257,0.130706
831,3.11535,0.120804
832,3.10152,0.111421
833,3.087778,0.102542
834,3.074138,0.09415
835,3.060611,0.086232
836,3.047209,0.078772
837,3.033942,0.071755
838,3.02082,0.065166
839,3.007853,0.058991
840,2.995045,0.053215
841,2.982406,0.047825
842,2.969942,0.042808
843,2.95766,0.038151
844,2.945568,0.033842
845,2.933672,0.029867
846,2.921978,0.026214
847,2.910493,0.02287
848,2.899222,0.019821
849,2.88817,0.017054
850,2.877341,0.014556
851,2.866741,0.012314
852,2.856372,0.010314
853,2.846238,0.008542
854,2.836343,0.006986
855,2.826688,0.00563
856,2.817275,0.004463
857,2.808104,0.003468
858,2.799178,0.002634
859,2.790496,0.001945
860,2.782056,0.001389
861,2.773858,0.00095
862,2.765899,0.000615
863,2.758177,0.00037
864,2.750686,0.0002
865,2.743423,0.000093
866,2.736381,0.000033
867,2.729552,0.000007
868,2.722926,0
869,2.716489,0
870,2.710222,0
871,2.704113,0
872,2.69815,0
873,2.692325,0
874,2.686632,0
875,2.681062,0
876,2.675611,0
877,2.670274,0
878,2.665044,0
879,2.659919,0
880,2.654893,0
881,2.649963,0
882,2.645126,0
883,2.640377,0
884,2.635714,0
885,2.631134,0
886,2.626634,0
887,2.622211,0
888,2.617864,0
889,2.613589,0
890,2.609384,0
891,2.605247,0
892,2.601177,0
893,2.59717,0
894,2.593226,0
895,2.589343,0
896,2.585518,0
897,2.581751,0
898,2.57804,0
899,2.574383,0
900,2.570779,0
901,2.567226,0
902,2.563724,0
903,2.56027,0
904,2.556865,0
905,2.553506,0
906,2.550192,0
907,2.546923,0
908,2.543697,0
909,2.540514,0
910,2.537371,0
911,2.534269,0
912,2.531207,0
913,2.528184,0
914,2.525198,0
915,2.522249,0
916,2.519337,0
917,2.516459,0
918,2.513617,0
919,2.510809,0
920,2.508034,0
921,2.505291,0
922,2.50258,0
923,2.499901,0
924,2.497252,0
925,2.494633,0
926,2.492044,0
927,2.489484,0
928,2.486952,0
929,2.484448,0
930,2.481972,0
931,2.479522,0
932,2.477098,0
933,2.474701,0
934,2.472328,0
935,2.469981,0
936,2.467658,0
937,2.465359,0
938,2.463084,0
939,2.460832,0
940,2.458602,0
941,2.456395,0
942,2.454211,0
943,2.452047,0
944,2.449905,0
945,2.447785,0
946,2.445684,0
947,2.443604,0
948,2.441544,0
949,2.439504,0
950,2.437482,0
951,2.43548,0
952,2.433497,0
953,2.431532,0
954,2.429585,0
955,2.427655,0
956,2.425744,0
957,2.42385,0
958,2.421972,0
959,2.420112,0
960,2.418267,0
961,2.41644,0
962,2.414628,0
963,2.412832,0
964,2.411052,0
965,2.409287,0
966,2.407537,0
967,2.405802,0
968,2.404082,0
969,2.402376,0
970,2.400684,0
971,2.399007,0
972,2.397343,0
973,2.395693,0
974,2.394057,0
975,2.392434,0
976,2.390824,0
977,2.389227,0
978,2.387642,0
979,2.386071,0
980,2.384511,0
981,2.382965,0
982,2.38143,0
983,2.379907,0
984,2.378396,0
985,2.376896,0
986,2.375409,0
987,2.373932,0
988,2.372467,0
989,2.371012,0
990,2.369569,0
991,2.368136,0
992,2.366714,0
993,2.365303,0
994,2.363902,0
995,2.362511,0
996,2.361131,0
997,2.35976,0
998,2.358399,0
999,2.357048,0
1000,2.355707,0
1002.5,2.352395,0
1005,2.349141,0
1007.5,2.345943,0
1010,2.3428,0
1012.5,2.33971,0
1015,2.336671,0
1017.5,2.333683,0
1020,2.330743,0
1022.5,2.32785,0
1025,2.325003,0
1027.5,2.322202,0
1030,2.319444,0
1032.5,2.316728,0
1035,2.314054,0
1037.5,2.311421,0
1040,2.308827,0
1042.5,2.306271,0
1045,2.303752,0
1047.5,2.30127,0
1050,2.298824,0
1052.5,2.296412,0
1055,2.294035,0
1057.5,2.29169,0
1060,2.289378,0
1062.5,2.287097,0
1065,2.284847,0
1067.5,2.282627,0
1070,2.280436,0
1072.5,2.278275,0
1075,2.276141,0
1077.5,2.274035,0
1080,2.271956,0
1082.5,2.269903,0
1085,2.267875,0
1087.5,2.265873,0
1090,2.263896,0
1092.5,2.261942,0
1095,2.260013,0
1097.5,2.258106,0
1100,2.256222,0
1102.5,2.25436,0
1105,2.25252,0
1107.5,2.250701,0
1110,2.248903,0
1112.5,2.247125,0
1115,2.245367,0
1117.5,2.243629,0
1120,2.24191,0
1122.5,2.240209,0
1125,2.238528,0
1127.5,2.236864,0
1130,2.235218,0
1132.5,2.23359,0
1135,2.231978,0
1137.5,2.230384,0
1140,2.228806,0
1142.5,2.227244,0
1145,2.225698,0
1147.5,2.224167,0
1150,2.222652,0
1152.5,2.221152,0
1155,2.219666,0
1157.5,2.218195,0
1160,2.216738,0
1162.5,2.215296,0
1165,2.213866,0
1167.5,2.212451,0
1170,2.211048,0
1172.5,2.209659,0
1175,2.208282,0
1177.5,2.206918,0
1180,2.205566,0
1182.5,2.204226,0
1185,2.202899,0
1187.5,2.201582,0
1190,2.200278,0
1192.5,2.198985,0
1195,2.197703,0
1197.5,2.196432,0
1200,2.195172,0
1202.5,2.193922,0
1205,2.192683,0
1207.5,2.191454,0
1210,2.190235,0
1212.5,2.189026,0
1215,2.187827,0
1217.5,2.186638,0
1220,2.185458,0
1222.5,2.184287,0
1225,2.183126,0
1227.5,2.181973,0
1230,2.18083,0
1232.5,2.179695,0
1235,2.178569,0
1237.5,2.177451,0
1240,2.176342,0
1242.5,2.175241,0
1245,2.174148,0
1247.5,2.173063,0
1250,2.171986,0
1252.5,2.170917,0
1255,2.169855,0
1257.5,2.168801,0
1260,2.167754,0
1262.5,2.166714,0
1265,2.165682,0
1267.5,2.164657,0
1270,2.163639,0
1272.5,2.162628,0
1275,2.161623,0
1277.5,2.160625,0
1280,2.159634,0
1282.5,2.158649,0
1285,2.157671,0
1287.5,2.156699,0
1290,2.155733,0
1292.5,2.154774,0
1295,2.15382,0
1297.5,2.152873,0
1300,2.151931,0
1302.5,2.150995,0
1305,2.150065,0
1307.5,2.14914,0
1310,2.148221,0
1312.5,2.147308,0
1315,2.146399,0
1317.5,2.145497,0
1320,2.144599,0
1322.5,2.143707,0
1325,2.14282,0
1327.5,2.141937,0
1330,2.14106,0
1332.5,2.140188,0
1335,2.139321,0
1337.5,2.138458,0
1340,2.1376,0
1342.5,2.136747,0
1345,2.135899,0
1347.5,2.135055,0
1350,2.134215,0
1352.5,2.13338,0
1355,2.132549,0
1357.5,2.131723,0
1360,2.130901,0
1362.5,2.130083,0
1365,2.129269,0
1367.5,2.128459,0
1370,2.127653,0
1372.5,2.126851,0
1375,2.126054,0
1377.5,2.12526,0
1380,2.12447,0
1382.5,2.123683,0
1385,2.122901,0
1387.5,2.122122,0
1390,2.121346,0
1392.5,2.120575,0
1395,2.119807,0
1397.5,2.119042,0
1400,2.118281,0
1402.5,2.117523,0
1405,2.116769,0
1407.5,2.116018,0
1410,2.11527,0
1412.5,2.114526,0
1415,2.113785,0
1417.5,2.113046,0
1420,2.112311,0
1422.5,2.11158,0
1425,2.110851,0
1427.5,2.110125,0
1430,2.109402,0
1432.5,2.108682,0
1435,2.107965,0
1437.5,2.107251,0
1440,2.10654,0
1442.5,2.105832,0
1445,2.105126,0
1447.5,2.104423,0
1450,2.103723,0
1452.5,2.103025,0
1455,2.10233,0
1457.5,2.101638,0
1460,2.100948,0
1462.5,2.100261,0
1465,2.099576,0
1467.5,2.098894,0
1470,2.098214,0
1472.5,2.097537,0
1475,2.096862,0
1477.5,2.096189,0
1480,2.095519,0
1482.5,2.094851,0
1485,2.094186,0
1487.5,2.093522,0
1490,2.092861,0
1492.5,2.092202,0
1495,2.091545,0
1497.5,2.09089,0
1500,2.090238,0
1502.5,2.089587,0
1505,2.088939,0
1507.5,2.088293,0
1510,2.087648,0
1512.5,2.087006,0
1515,2.086366,0
1517.5,2.085727,0
1520,2.085091,0
1522.5,2.084456,0
1525,2.083824,0
1527.5,2.083193,0
1530,2.082564,0
1532.5,2.081937,0
1535,2.081312,0
1537.5,2.080688,0
1540,2.080066,0
