Wavelength (nm),IDIC_n,IDIC_k
300,1.73051,0.2112
301,1.74332,0.22201
302,1.7563,0.2312
303,1.76918,0.23952
304,1.78191,0.2465
305,1.79412,0.25143
306,1.806,0.25524
307,1.81709,0.25671
308,1.82744,0.25672
309,1.83728,0.25575
310,1.84572,0.25323
311,1.85348,0.25038
312,1.86031,0.24706
313,1.86566,0.24367
314,1.87026,0.24038
315,1.87337,0.23748
316,1.87537,0.23494
317,1.87667,0.23263
318,1.87662,0.23065
319,1.87608,0.22876
320,1.87495,0.22695
321,1.87315,0.22513
322,1.87111,0.22325
323,1.86871,0.22124
324,1.86611,0.21909
325,1.86339,0.21688
326,1.86048,0.21461
327,1.8575,0.21238
328,1.85445,0.21021
329,1.85135,0.20824
330,1.84823,0.2064
331,1.84513,0.20482
332,1.84207,0.20357
333,1.83906,0.2025
334,1.83617,0.20176
335,1.83339,0.20113
336,1.83072,0.2006
337,1.82832,0.20013
338,1.82604,0.19963
339,1.82401,0.19909
340,1.82228,0.19838
341,1.82072,0.19757
342,1.81954,0.1965
343,1.81854,0.19527
344,1.81768,0.19391
345,1.81702,0.19235
346,1.81638,0.19071
347,1.8158,0.18896
348,1.81517,0.18712
349,1.8145,0.18524
350,1.8137,0.18331
351,1.81274,0.18136
352,1.81168,0.1794
353,1.81037,0.17744
354,1.809,0.17548
355,1.80751,0.17352
356,1.80593,0.17159
357,1.80432,0.16966
358,1.80266,0.16775
359,1.801,0.16588
360,1.79934,0.16402
361,1.79774,0.16222
362,1.79616,0.16044
363,1.79463,0.1587
364,1.79312,0.15701
365,1.79162,0.15536
366,1.79011,0.15375
367,1.78857,0.15218
368,1.787,0.15065
369,1.78534,0.14917
370,1.78362,0.14773
371,1.78182,0.14633
372,1.77988,0.14498
373,1.77787,0.14367
374,1.77572,0.1424
375,1.77352,0.14117
376,1.77128,0.13998
377,1.76902,0.13884
378,1.76679,0.13774
379,1.7646,0.13667
380,1.76253,0.13567
381,1.76054,0.13469
382,1.75869,0.13375
383,1.75704,0.13287
384,1.75551,0.13201
385,1.75428,0.13121
386,1.7532,0.13042
387,1.75227,0.12964
388,1.75157,0.12885
389,1.75094,0.12803
390,1.75045,0.12716
391,1.75004,0.1262
392,1.74968,0.1252
393,1.74939,0.12405
394,1.74911,0.12279
395,1.74884,0.12143
396,1.74854,0.11985
397,1.74822,0.11816
398,1.74786,0.11628
399,1.74743,0.11424
400,1.74698,0.1121
401,1.74645,0.10981
402,1.74588,0.10745
403,1.74527,0.10503
404,1.74458,0.10254
405,1.74386,0.10004
406,1.74308,0.09751
407,1.74223,0.09501
408,1.74134,0.09252
409,1.74038,0.09008
410,1.73936,0.0877
411,1.7383,0.08537
412,1.73714,0.08317
413,1.73595,0.08102
414,1.73471,0.07895
415,1.7334,0.077
416,1.73205,0.07509
417,1.73064,0.0733
418,1.72919,0.07159
419,1.72771,0.06994
420,1.72615,0.06842
421,1.72458,0.06696
422,1.72296,0.06559
423,1.7213,0.06434
424,1.71961,0.06314
425,1.71788,0.06205
426,1.71612,0.06106
427,1.71435,0.06012
428,1.71255,0.05931
429,1.71075,0.05855
430,1.70895,0.05786
431,1.70716,0.05727
432,1.70538,0.05673
433,1.70362,0.05625
434,1.7019,0.05585
435,1.7002,0.05548
436,1.69855,0.05519
437,1.69695,0.05495
438,1.69539,0.05474
439,1.69391,0.0546
440,1.69249,0.05448
441,1.69113,0.05441
442,1.68986,0.05437
443,1.68863,0.05435
444,1.68749,0.05433
445,1.6864,0.05431
446,1.68535,0.05428
447,1.68439,0.05422
448,1.68345,0.05413
449,1.68256,0.05399
450,1.68172,0.05379
451,1.68091,0.05354
452,1.68015,0.0532
453,1.67941,0.05278
454,1.6787,0.05229
455,1.67803,0.05166
456,1.67737,0.05095
457,1.67674,0.05012
458,1.67613,0.04915
459,1.67552,0.0481
460,1.67491,0.04692
461,1.67429,0.04567
462,1.67367,0.04435
463,1.67299,0.04294
464,1.67229,0.04148
465,1.67154,0.03999
466,1.67073,0.03844
467,1.66987,0.03688
468,1.66892,0.0353
469,1.66789,0.03371
470,1.66681,0.03212
471,1.66557,0.03055
472,1.66427,0.02899
473,1.66286,0.02746
474,1.6613,0.02597
475,1.65966,0.02451
476,1.65786,0.02312
477,1.65597,0.02178
478,1.65401,0.02049
479,1.65198,0.0193
480,1.64993,0.01818
481,1.64786,0.01714
482,1.64582,0.01623
483,1.64381,0.01539
484,1.64187,0.01467
485,1.64002,0.01409
486,1.63824,0.01359
487,1.63663,0.01328
488,1.63515,0.01308
489,1.63379,0.013
490,1.63271,0.01314
491,1.63176,0.01338
492,1.63105,0.0138
493,1.63063,0.01441
494,1.63037,0.01513
495,1.63049,0.01611
496,1.63082,0.01723
497,1.63135,0.01847
498,1.6322,0.01996
499,1.63317,0.02155
500,1.63434,0.02329
501,1.63567,0.02519
502,1.63708,0.02718
503,1.63865,0.02935
504,1.64028,0.03162
505,1.64196,0.03396
506,1.64371,0.03648
507,1.64547,0.03906
508,1.64724,0.04173
509,1.64899,0.04452
510,1.65072,0.04736
511,1.65239,0.05031
512,1.654,0.05333
513,1.65555,0.0564
514,1.65695,0.05957
515,1.65827,0.06279
516,1.65948,0.06606
517,1.66055,0.06941
518,1.66157,0.07281
519,1.66254,0.0763
520,1.66351,0.07986
521,1.66449,0.08347
522,1.66559,0.08721
523,1.66676,0.09101
524,1.66805,0.09488
525,1.66957,0.09888
526,1.67123,0.10294
527,1.67315,0.10711
528,1.67537,0.11138
529,1.67776,0.11571
530,1.68063,0.12018
531,1.68377,0.12471
532,1.68721,0.12933
533,1.69121,0.13407
534,1.69549,0.13887
535,1.70027,0.14377
536,1.70556,0.14877
537,1.71117,0.15381
538,1.71749,0.15897
539,1.72422,0.1642
540,1.73134,0.1695
541,1.73903,0.17503
542,1.74692,0.18072
543,1.7551,0.18666
544,1.76345,0.19299
545,1.77189,0.19954
546,1.78039,0.20664
547,1.78884,0.21416
548,1.79727,0.22202
549,1.80548,0.2307
550,1.81356,0.23978
551,1.82142,0.24947
552,1.82893,0.25999
553,1.83624,0.27097
554,1.8431,0.28291
555,1.84958,0.2956
556,1.8558,0.30881
557,1.86133,0.32338
558,1.86654,0.33857
559,1.87131,0.35462
560,1.87542,0.37195
561,1.87921,0.38995
562,1.88237,0.40924
563,1.885,0.42965
564,1.8873,0.45079
565,1.88885,0.47365
566,1.89012,0.49727
567,1.89104,0.5218
568,1.89154,0.54765
569,1.89187,0.57407
570,1.89193,0.60151
571,1.89183,0.62978
572,1.89164,0.65855
573,1.89133,0.6883
574,1.891,0.71851
575,1.89066,0.7492
576,1.89034,0.78059
577,1.89007,0.81226
578,1.88986,0.84437
579,1.88977,0.87683
580,1.88974,0.90947
581,1.88988,0.94243
582,1.89013,0.9755
583,1.89047,1.00868
584,1.89103,1.04195
585,1.89167,1.07522
586,1.89245,1.10848
587,1.89339,1.14164
588,1.89441,1.17473
589,1.89559,1.20764
590,1.89686,1.24037
591,1.8982,1.27297
592,1.89969,1.30517
593,1.90125,1.33712
594,1.90292,1.3687
595,1.90478,1.39961
596,1.90674,1.43014
597,1.90891,1.45984
598,1.91125,1.48878
599,1.9137,1.5172
600,1.91643,1.54425
601,1.91928,1.5706
602,1.92228,1.59608
603,1.92551,1.62008
604,1.92886,1.64333
605,1.93239,1.66521
606,1.9361,1.68575
607,1.9399,1.70545
608,1.94393,1.72322
609,1.94808,1.73988
610,1.95235,1.75542
611,1.95683,1.76884
612,1.96142,1.78126
613,1.96616,1.79201
614,1.97109,1.80091
615,1.97613,1.80875
616,1.9814,1.8143
617,1.98682,1.81835
618,1.99239,1.82114
619,1.99827,1.82121
620,2.00431,1.82008
621,2.0106,1.81706
622,2.01722,1.81171
623,2.02405,1.80517
624,2.0313,1.79641
625,2.03891,1.78632
626,2.04677,1.77532
627,2.05529,1.76257
628,2.06412,1.7493
629,2.07338,1.73528
630,2.08329,1.72058
631,2.09353,1.70565
632,2.10439,1.69045
633,2.11578,1.67531
634,2.1275,1.66022
635,2.14,1.64562
636,2.15286,1.63147
637,2.16614,1.61781
638,2.18007,1.60533
639,2.19428,1.59351
640,2.20896,1.58292
641,2.22405,1.57378
642,2.23938,1.56554
643,2.25515,1.55944
644,2.27113,1.55476
645,2.28731,1.55137
646,2.30379,1.55076
647,2.32037,1.55147
648,2.33711,1.55429
649,2.35398,1.5597
650,2.37091,1.56656
651,2.38793,1.57642
652,2.405,1.58847
653,2.42211,1.6021
654,2.43929,1.61958
655,2.45649,1.63869
656,2.47374,1.66017
657,2.49106,1.6846
658,2.50841,1.71035
659,2.52582,1.73834
660,2.54326,1.76772
661,2.56073,1.79796
662,2.57823,1.82966
663,2.59573,1.8618
664,2.61322,1.89443
665,2.63067,1.92741
666,2.64808,1.96041
667,2.66541,1.99334
668,2.68261,2.02589
669,2.69973,2.05818
670,2.71662,2.08961
671,2.73333,2.12036
672,2.74989,2.15048
673,2.76605,2.17905
674,2.78202,2.20683
675,2.79766,2.23334
676,2.81287,2.25813
677,2.82782,2.28196
678,2.84225,2.30371
679,2.85625,2.32384
680,2.86996,2.34283
681,2.88289,2.35882
682,2.89547,2.37349
683,2.90757,2.38625
684,2.91893,2.39616
685,2.92991,2.40458
686,2.94019,2.4102
687,2.94985,2.41326
688,2.95911,2.41469
689,2.96746,2.41224
690,2.97533,2.40768
691,2.98269,2.40082
692,2.98919,2.38981
693,2.99529,2.3768
694,3.00075,2.36039
695,3.0056,2.34058
696,3.01013,2.31887
697,3.01405,2.29334
698,3.01767,2.2656
699,3.02103,2.236
700,3.02399,2.20279
701,3.02683,2.16812
702,3.0295,2.13128
703,3.03207,2.09192
704,3.03461,2.05131
705,3.03716,2.00838
706,3.0398,1.96385
707,3.04251,1.91825
708,3.04549,1.87041
709,3.04866,1.82168
710,3.05204,1.77185
711,3.05587,1.72058
712,3.05993,1.6687
713,3.06443,1.61585
714,3.06939,1.56232
715,3.07463,1.50841
716,3.0805,1.45392
717,3.08675,1.39929
718,3.09334,1.34453
719,3.10057,1.28985
720,3.10807,1.23533
721,3.11598,1.18111
722,3.12428,1.1275
723,3.13278,1.07429
724,3.14161,1.02203
725,3.15056,0.97064
726,3.1596,0.91986
727,3.16866,0.87084
728,3.17764,0.82269
729,3.1865,0.77572
730,3.195,0.73066
731,3.20326,0.68662
732,3.211,0.64445
733,3.2181,0.60409
734,3.2248,0.56487
735,3.23039,0.52828
736,3.23529,0.49317
737,3.23948,0.45953
738,3.24235,0.42843
739,3.24462,0.39842
740,3.24594,0.37014
741,3.24619,0.34367
742,3.24585,0.31817
743,3.24435,0.29454
744,3.24206,0.27213
745,3.23921,0.25059
746,3.23506,0.23099
747,3.23039,0.21215
748,3.225,0.19437
749,3.21862,0.17799
750,3.21176,0.16229
751,3.20406,0.14777
752,3.19566,0.13423
753,3.18684,0.1213
754,3.17711,0.10963
755,3.16694,0.09859
756,3.15631,0.08819
757,3.14494,0.07888
758,3.13324,0.07003
759,3.12105,0.06193
760,3.10836,0.0546
761,3.09541,0.04768
762,3.08197,0.04155
763,3.06825,0.03593
764,3.05432,0.03068
765,3.03998,0.02624
766,3.0255,0.0221
767,3.01084,0.01839
768,2.99598,0.01525
769,2.98105,0.01236
770,2.96601,0.00992
771,2.95093,0.00785
772,2.93585,0.00599
773,2.9208,0.00456
774,2.90582,0.00333
775,2.89091,0.00231
776,2.87621,0.00159
777,2.86164,9.96605E-4
778,2.84729,5.78611E-4
779,2.83326,3.16197E-4
780,2.81943,1.26478E-4
781,2.80603,4.80586E-5
782,2.793,1.05065E-5
783,2.78023,0
784,2.76815,0
785,2.75638,0
786,2.74499,0
787,2.73419,0
788,2.72367,0
789,2.71361,0
790,2.704,0
791,2.69465,0
792,2.68583,0
793,2.67733,0
794,2.6691,0
795,2.66141,0
796,2.65394,0
797,2.64681,0
798,2.64008,0
799,2.63356,0
800,2.62742,0