Wavelength (nm),ITIC_n,ITIC_k
300,1.63425,0.19317
301,1.64087,0.20022
302,1.64719,0.2065
303,1.65332,0.21223
304,1.65912,0.21709
305,1.66435,0.22042
306,1.66924,0.22285
307,1.67339,0.22332
308,1.67694,0.22229
309,1.68007,0.22026
310,1.68225,0.21661
311,1.68405,0.21264
312,1.68533,0.20824
313,1.68591,0.20389
314,1.68615,0.19975
315,1.68575,0.19627
316,1.6849,0.1936
317,1.68376,0.19143
318,1.68219,0.19031
319,1.68056,0.18955
320,1.67883,0.18925
321,1.6772,0.18945
322,1.67569,0.18982
323,1.67445,0.19045
324,1.67358,0.19118
325,1.67295,0.19197
326,1.6728,0.19284
327,1.67286,0.19373
328,1.67313,0.19465
329,1.6737,0.19559
330,1.67437,0.19653
331,1.67521,0.19746
332,1.67615,0.19837
333,1.67715,0.19926
334,1.67824,0.20008
335,1.67938,0.20082
336,1.68058,0.20149
337,1.68187,0.20196
338,1.68322,0.20233
339,1.68464,0.20251
340,1.68615,0.20246
341,1.68771,0.20226
342,1.68938,0.20173
343,1.69108,0.20103
344,1.6928,0.20018
345,1.69442,0.19919
346,1.69594,0.19818
347,1.6973,0.19717
348,1.69835,0.19627
349,1.69923,0.19545
350,1.69966,0.19486
351,1.69973,0.1945
352,1.69951,0.19432
353,1.69859,0.19457
354,1.69739,0.19494
355,1.69575,0.19551
356,1.6936,0.19621
357,1.69117,0.19696
358,1.68823,0.19773
359,1.68491,0.19845
360,1.68134,0.19914
361,1.67717,0.19962
362,1.67277,0.19996
363,1.66802,0.20013
364,1.66294,0.20004
365,1.65773,0.19983
366,1.65239,0.19944
367,1.64707,0.19894
368,1.64178,0.19837
369,1.63673,0.19768
370,1.63191,0.19696
371,1.62734,0.19621
372,1.62336,0.19545
373,1.6197,0.1947
374,1.61668,0.19399
375,1.61421,0.19329
376,1.61207,0.19261
377,1.61056,0.19192
378,1.6093,0.19122
379,1.60833,0.19049
380,1.60771,0.18971
381,1.60721,0.18889
382,1.60689,0.188
383,1.60667,0.18702
384,1.6065,0.18599
385,1.60633,0.18481
386,1.60613,0.18355
387,1.6059,0.18221
388,1.60561,0.1807
389,1.6053,0.17912
390,1.60496,0.17741
391,1.60458,0.17557
392,1.60419,0.17366
393,1.60377,0.17158
394,1.60334,0.16941
395,1.6029,0.16714
396,1.60244,0.16469
397,1.60198,0.16216
398,1.60152,0.1595
399,1.60105,0.15669
400,1.60058,0.15382
401,1.6001,0.1508
402,1.59961,0.1477
403,1.59911,0.14453
404,1.59859,0.14125
405,1.59805,0.13792
406,1.59749,0.13453
407,1.59689,0.13108
408,1.59628,0.12759
409,1.59564,0.12405
410,1.59496,0.12047
411,1.59426,0.11688
412,1.5935,0.11325
413,1.59272,0.10963
414,1.59191,0.10601
415,1.59108,0.10245
416,1.59023,0.09893
417,1.58935,0.09549
418,1.58847,0.09217
419,1.58758,0.08891
420,1.58668,0.08588
421,1.58578,0.08296
422,1.58488,0.0802
423,1.58399,0.07771
424,1.58311,0.07536
425,1.58223,0.0733
426,1.58138,0.0715
427,1.58053,0.06988
428,1.57971,0.06862
429,1.57889,0.06751
430,1.57809,0.06657
431,1.57729,0.06588
432,1.57649,0.06528
433,1.5757,0.06485
434,1.5749,0.06452
435,1.57411,0.06427
436,1.57331,0.06412
437,1.5725,0.06401
438,1.57169,0.06393
439,1.57086,0.06388
440,1.57003,0.06382
441,1.56918,0.06374
442,1.56831,0.06363
443,1.56744,0.0635
444,1.56654,0.06333
445,1.56563,0.06316
446,1.56471,0.06297
447,1.56376,0.06278
448,1.56281,0.0626
449,1.56184,0.06242
450,1.56085,0.06228
451,1.55985,0.06214
452,1.55883,0.06205
453,1.55779,0.062
454,1.55675,0.06197
455,1.55568,0.06203
456,1.55461,0.06212
457,1.55351,0.06226
458,1.5524,0.0625
459,1.55128,0.06277
460,1.55015,0.06313
461,1.549,0.06354
462,1.54784,0.06398
463,1.54666,0.06448
464,1.54547,0.06501
465,1.54427,0.06556
466,1.54306,0.06614
467,1.54185,0.06673
468,1.54062,0.06734
469,1.53938,0.06794
470,1.53813,0.06855
471,1.53687,0.06914
472,1.53561,0.06972
473,1.53434,0.07029
474,1.53306,0.07082
475,1.53177,0.07133
476,1.53047,0.0718
477,1.52917,0.07224
478,1.52786,0.07266
479,1.52652,0.07306
480,1.52518,0.07347
481,1.52382,0.07387
482,1.52242,0.0743
483,1.52101,0.07476
484,1.51957,0.07525
485,1.5181,0.0758
486,1.51661,0.07638
487,1.51507,0.07706
488,1.51349,0.0778
489,1.51189,0.07861
490,1.51023,0.07955
491,1.50854,0.08056
492,1.5068,0.08169
493,1.50501,0.08295
494,1.50318,0.0843
495,1.50129,0.08583
496,1.49936,0.08747
497,1.49738,0.08922
498,1.49535,0.09114
499,1.49328,0.09314
500,1.49118,0.09524
501,1.48904,0.09743
502,1.48687,0.09968
503,1.48467,0.10201
504,1.48245,0.10439
505,1.48021,0.1068
506,1.47794,0.10925
507,1.47566,0.11172
508,1.47336,0.1142
509,1.47105,0.11669
510,1.46874,0.11917
511,1.46641,0.12163
512,1.46408,0.12406
513,1.46175,0.12647
514,1.45941,0.12881
515,1.45707,0.13112
516,1.45472,0.13337
517,1.45239,0.13554
518,1.45004,0.13767
519,1.4477,0.13975
520,1.44534,0.14182
521,1.44297,0.14387
522,1.44058,0.14596
523,1.43817,0.14807
524,1.43573,0.15022
525,1.43326,0.15247
526,1.43077,0.15477
527,1.42823,0.15719
528,1.42565,0.15974
529,1.42305,0.16237
530,1.42038,0.16522
531,1.41768,0.1682
532,1.41493,0.17132
533,1.41212,0.17472
534,1.40927,0.17825
535,1.40637,0.18203
536,1.4034,0.18608
537,1.4004,0.19029
538,1.39733,0.19487
539,1.39421,0.19969
540,1.39105,0.20472
541,1.38783,0.21015
542,1.38459,0.21575
543,1.38132,0.22159
544,1.37805,0.22767
545,1.37478,0.23386
546,1.37153,0.24028
547,1.3683,0.2468
548,1.36508,0.25342
549,1.36193,0.26017
550,1.35881,0.26695
551,1.35575,0.27379
552,1.35276,0.28066
553,1.34982,0.28752
554,1.34697,0.29437
555,1.34419,0.30117
556,1.34147,0.30794
557,1.33888,0.31459
558,1.33635,0.32116
559,1.33391,0.32763
560,1.33158,0.33392
561,1.32932,0.34011
562,1.32717,0.34608
563,1.32513,0.35186
564,1.32314,0.35752
565,1.3213,0.36284
566,1.31952,0.36802
567,1.31782,0.37304
568,1.31621,0.37789
569,1.31465,0.38268
570,1.31317,0.38739
571,1.31174,0.39209
572,1.31035,0.39678
573,1.30903,0.40154
574,1.30775,0.40637
575,1.30649,0.41127
576,1.3053,0.41638
577,1.30412,0.42162
578,1.30299,0.42706
579,1.3019,0.43278
580,1.30083,0.43866
581,1.29981,0.44493
582,1.29882,0.45149
583,1.29787,0.45828
584,1.29698,0.46562
585,1.29613,0.47322
586,1.29533,0.48124
587,1.29461,0.48978
588,1.29394,0.49862
589,1.29337,0.50808
590,1.29289,0.518
591,1.29247,0.52825
592,1.29224,0.53932
593,1.2921,0.55071
594,1.2921,0.56258
595,1.29236,0.57495
596,1.29277,0.58754
597,1.29348,0.6005
598,1.29446,0.61366
599,1.29563,0.62693
600,1.29727,0.64036
601,1.29914,0.6538
602,1.30129,0.66725
603,1.30389,0.6806
604,1.30672,0.69387
605,1.30994,0.70696
606,1.31352,0.7198
607,1.31733,0.7325
608,1.32162,0.74475
609,1.32617,0.75673
610,1.33098,0.76842
611,1.33624,0.77951
612,1.34171,0.79031
613,1.3475,0.80058
614,1.35364,0.81027
615,1.35997,0.8196
616,1.36668,0.82817
617,1.37364,0.83621
618,1.38079,0.84381
619,1.38834,0.85044
620,1.39607,0.85664
621,1.40406,0.86216
622,1.41236,0.86682
623,1.42083,0.87102
624,1.42962,0.87433
625,1.43861,0.87709
626,1.44775,0.87947
627,1.4572,0.88108
628,1.46676,0.88244
629,1.47648,0.88344
630,1.48639,0.88405
631,1.4964,0.8845
632,1.50656,0.88469
633,1.51683,0.88475
634,1.52717,0.88474
635,1.53763,0.88465
636,1.54814,0.88458
637,1.5587,0.88452
638,1.56932,0.88459
639,1.57996,0.88475
640,1.59062,0.88508
641,1.60128,0.88565
642,1.61193,0.88637
643,1.62255,0.88746
644,1.63314,0.88882
645,1.64369,0.89042
646,1.65416,0.89257
647,1.66457,0.89498
648,1.67491,0.89783
649,1.68513,0.90121
650,1.69529,0.90491
651,1.7053,0.90925
652,1.71521,0.91408
653,1.72503,0.91926
654,1.73465,0.92532
655,1.74419,0.93176
656,1.75359,0.93877
657,1.76282,0.94653
658,1.77198,0.95463
659,1.78103,0.96332
660,1.79003,0.97236
661,1.79901,0.98162
662,1.80797,0.99123
663,1.81696,1.00093
664,1.82597,1.01074
665,1.83507,1.02056
666,1.84422,1.03036
667,1.85347,1.04006
668,1.86285,1.04956
669,1.87231,1.05894
670,1.88196,1.06795
671,1.89174,1.07668
672,1.90164,1.08515
673,1.9118,1.093
674,1.92208,1.10054
675,1.93256,1.10758
676,1.94329,1.11394
677,1.95415,1.11993
678,1.96531,1.1251
679,1.97669,1.12965
680,1.98822,1.13376
681,2.00016,1.13671
682,2.01228,1.13916
683,2.02465,1.14087
684,2.03741,1.14151
685,2.05037,1.14159
686,2.0637,1.14061
687,2.07739,1.1387
688,2.0913,1.13618
689,2.10575,1.13226
690,2.12051,1.1276
691,2.13559,1.12212
692,2.15127,1.11521
693,2.16725,1.10763
694,2.18374,1.09889
695,2.20075,1.08902
696,2.21805,1.07851
697,2.2359,1.06678
698,2.25405,1.05437
699,2.27245,1.0414
700,2.29128,1.02739
701,2.31026,1.013
702,2.32947,0.99804
703,2.34888,0.98247
704,2.36838,0.96662
705,2.38802,0.95025
706,2.40771,0.93358
707,2.42742,0.9167
708,2.44711,0.89945
709,2.46674,0.88207
710,2.48631,0.86454
711,2.5057,0.84686
712,2.52497,0.82914
713,2.54402,0.81135
714,2.56278,0.79356
715,2.58137,0.77577
716,2.59952,0.75806
717,2.61736,0.74041
718,2.63491,0.72283
719,2.65184,0.70544
720,2.66845,0.68815
721,2.68456,0.67102
722,2.70003,0.65413
723,2.71513,0.63737
724,2.72946,0.62089
725,2.7432,0.60463
726,2.75651,0.58854
727,2.76873,0.57285
728,2.78046,0.55736
729,2.79152,0.54212
730,2.80154,0.52727
731,2.81101,0.51263
732,2.8195,0.49836
733,2.82706,0.48443
734,2.83403,0.47072
735,2.83966,0.4575
736,2.84452,0.44456
737,2.84861,0.4319
738,2.85135,0.41971
739,2.8535,0.40773
740,2.85473,0.39608
741,2.85497,0.38476
742,2.85468,0.37362
743,2.85337,0.36284
744,2.85139,0.35228
745,2.84893,0.34189
746,2.8454,0.33186
747,2.84146,0.32198
748,2.83693,0.3123
749,2.83162,0.30289
750,2.82595,0.29362
751,2.81963,0.28457
752,2.81278,0.27572
753,2.80561,0.267
754,2.79776,0.25853
755,2.78959,0.25019
756,2.78109,0.24199
757,2.77203,0.23403
758,2.76275,0.22617
759,2.75311,0.21847
760,2.74311,0.21096
761,2.73292,0.20354
762,2.72239,0.19633
763,2.71165,0.18924
764,2.70076,0.18225
765,2.68958,0.17549
766,2.67831,0.16881
767,2.6669,0.16227
768,2.65534,0.15591
769,2.64373,0.14964
770,2.63204,0.14353
771,2.62031,0.13757
772,2.60856,0.13169
773,2.59683,0.12602
774,2.58513,0.12045
775,2.57346,0.11499
776,2.56192,0.10973
777,2.55045,0.10457
778,2.5391,0.09954
779,2.52796,0.09469
780,2.51692,0.08994
781,2.50615,0.08536
782,2.4956,0.08093
783,2.48521,0.07659
784,2.47524,0.07248
785,2.46546,0.06847
786,2.45593,0.06459
787,2.44677,0.0609
788,2.43778,0.05731
789,2.42909,0.05388
790,2.42067,0.0506
791,2.41242,0.0474
792,2.40451,0.0444
793,2.39679,0.0415
794,2.38925,0.0387
795,2.38205,0.03608
796,2.37499,0.03355
797,2.36815,0.03114
798,2.36156,0.02887
799,2.35511,0.02668
800,2.34891,0.02463