Wavelength (nm),MoOxBrabec_n,MoOxBrabec_k
350,1.8634,0.02344
351,1.86132,0.02267
352,1.85924,0.0219
353,1.85716,0.02113
354,1.85507,0.02035
355,1.85299,0.01964
356,1.85081,0.01913
357,1.84828,0.01862
358,1.84574,0.01811
359,1.84321,0.0176
360,1.84068,0.01709
361,1.83814,0.01658
362,1.83561,0.01607
363,1.83307,0.01568
364,1.83151,0.01531
365,1.8302,0.01495
366,1.82889,0.01458
367,1.82758,0.01421
368,1.82627,0.01385
369,1.82496,0.01348
370,1.82366,0.01311
371,1.82235,0.01274
372,1.82104,0.0125
373,1.81973,0.01232
374,1.81842,0.01214
375,1.81711,0.01197
376,1.8158,0.01179
377,1.81423,0.01161
378,1.81259,0.01143
379,1.81094,0.01125
380,1.80929,0.01107
381,1.80764,0.01089
382,1.80599,0.01071
383,1.80434,0.01054
384,1.80269,0.01036
385,1.80104,0.01018
386,1.79919,0.01
387,1.79712,0.00982
388,1.79505,0.00964
389,1.79299,0.00947
390,1.79092,0.0093
391,1.78885,0.00913
392,1.78678,0.00896
393,1.78476,0.00879
394,1.78358,0.00862
395,1.78239,0.00844
396,1.7812,0.00827
397,1.78001,0.0081
398,1.77882,0.00793
399,1.77764,0.00776
400,1.77645,0.00759
401,1.77526,0.00742
402,1.77407,0.00725
403,1.77289,0.00714
404,1.7717,0.0071
405,1.77051,0.00706
406,1.76935,0.00702
407,1.76844,0.00699
408,1.76753,0.00695
409,1.76661,0.00691
410,1.7657,0.00687
411,1.76479,0.00684
412,1.76387,0.0068
413,1.76296,0.00676
414,1.76204,0.00672
415,1.76113,0.00669
416,1.76022,0.00665
417,1.7593,0.00661
418,1.75839,0.00657
419,1.75749,0.00654
420,1.75677,0.0065
421,1.75606,0.00646
422,1.75534,0.00642
423,1.75462,0.00639
424,1.7539,0.00635
425,1.75318,0.00635
426,1.75247,0.00639
427,1.75175,0.00643
428,1.75103,0.00647
429,1.75031,0.00651
430,1.74959,0.00655
431,1.74888,0.00659
432,1.74816,0.00663
433,1.74744,0.00668
434,1.74672,0.00672
435,1.746,0.00676
436,1.74529,0.0068
437,1.74458,0.00684
438,1.74386,0.00688
439,1.74315,0.00692
440,1.74244,0.00696
441,1.74172,0.007
442,1.74101,0.00704
443,1.7403,0.00708
444,1.73959,0.00712
445,1.73887,0.00716
446,1.73816,0.0072
447,1.73745,0.00724
448,1.73673,0.00728
449,1.73602,0.00732
450,1.73531,0.00736
451,1.73459,0.00739
452,1.73388,0.00743
453,1.73317,0.00747
454,1.73246,0.00751
455,1.73174,0.00755
456,1.73103,0.00759
457,1.73032,0.00762
458,1.7296,0.00766
459,1.72889,0.0077
460,1.72818,0.00774
461,1.72747,0.00778
462,1.72675,0.00782
463,1.72604,0.00785
464,1.72533,0.00789
465,1.72461,0.00793
466,1.7239,0.00797
467,1.72319,0.00802
468,1.72248,0.0081
469,1.72176,0.00817
470,1.72125,0.00825
471,1.72075,0.00833
472,1.72024,0.0084
473,1.71973,0.00848
474,1.71923,0.00856
475,1.71872,0.00863
476,1.71822,0.00871
477,1.71771,0.00879
478,1.71721,0.00886
479,1.7167,0.00894
480,1.71619,0.00901
481,1.71569,0.00909
482,1.71518,0.00917
483,1.71468,0.00924
484,1.71417,0.00933
485,1.71367,0.00941
486,1.71316,0.0095
487,1.71265,0.00958
488,1.71215,0.00967
489,1.71164,0.00975
490,1.71109,0.00984
491,1.71051,0.00992
492,1.70992,0.01001
493,1.70934,0.01009
494,1.70875,0.01018
495,1.70817,0.01026
496,1.70758,0.01035
497,1.707,0.01043
498,1.70641,0.01052
499,1.70583,0.01075
500,1.70525,0.01098
501,1.70466,0.01121
502,1.70408,0.01144
503,1.70349,0.01167
504,1.70291,0.01189
505,1.70232,0.01212
506,1.70174,0.01235
507,1.70115,0.01258
508,1.70057,0.01281
509,1.69999,0.01304
510,1.69942,0.01327
511,1.69891,0.01349
512,1.6984,0.01372
513,1.69789,0.01395
514,1.69738,0.01418
515,1.69686,0.01439
516,1.69635,0.01459
517,1.69584,0.01478
518,1.69533,0.01498
519,1.69482,0.01517
520,1.69431,0.01537
521,1.6938,0.01557
522,1.69329,0.01576
523,1.69278,0.01596
524,1.69227,0.01615
525,1.69176,0.01635
526,1.69125,0.01654
527,1.69073,0.01674
528,1.6902,0.01696
529,1.68967,0.01719
530,1.68915,0.01742
531,1.68862,0.01765
532,1.68809,0.01788
533,1.68757,0.01811
534,1.68704,0.01834
535,1.68651,0.01857
536,1.68599,0.0188
537,1.68546,0.01903
538,1.68493,0.01927
539,1.68441,0.01955
540,1.68388,0.01985
541,1.68335,0.02015
542,1.68283,0.02045
543,1.6823,0.02076
544,1.68177,0.02106
545,1.68125,0.02136
546,1.68072,0.02167
547,1.68019,0.02197
548,1.67967,0.02227
549,1.67914,0.02258
550,1.67861,0.0228
551,1.67809,0.02297
552,1.67756,0.02314
553,1.67718,0.02331
554,1.67693,0.02349
555,1.67667,0.02366
556,1.67642,0.02383
557,1.67616,0.024
558,1.67591,0.02418
559,1.67565,0.02435
560,1.67539,0.02452
561,1.67514,0.02469
562,1.67488,0.02486
563,1.67463,0.02504
564,1.67437,0.02521
565,1.67412,0.02546
566,1.67386,0.02572
567,1.67361,0.02597
568,1.67335,0.02623
569,1.6731,0.02648
570,1.67284,0.02674
571,1.67259,0.02699
572,1.67233,0.02724
573,1.67208,0.0275
574,1.67182,0.02775
575,1.67156,0.02801
576,1.67131,0.02826
577,1.67105,0.02851
578,1.6708,0.02877
579,1.67054,0.02902
580,1.67029,0.02928
581,1.67003,0.0296
582,1.66978,0.02999
583,1.66952,0.03038
584,1.66927,0.03077
585,1.66901,0.03116
586,1.66871,0.03156
587,1.66815,0.03195
588,1.66759,0.03234
589,1.66702,0.03273
590,1.66646,0.03312
591,1.6659,0.03351
592,1.66533,0.0339
593,1.66477,0.0343
594,1.66421,0.0346
595,1.66364,0.03485
596,1.66308,0.03511
597,1.66252,0.03536
598,1.66195,0.03561
599,1.66139,0.03587
600,1.66083,0.03612
601,1.66026,0.03638
602,1.6597,0.03663
603,1.65914,0.03688
604,1.65857,0.03714
605,1.65801,0.03739
606,1.65745,0.03765
607,1.65688,0.0379
608,1.65632,0.03816
609,1.65576,0.03841
610,1.65519,0.03866
611,1.6548,0.03893
612,1.65441,0.03919
613,1.65401,0.03945
614,1.65362,0.03971
615,1.65323,0.03997
616,1.65283,0.04023
617,1.65244,0.04049
618,1.65205,0.04076
619,1.65165,0.04102
620,1.65126,0.04128
621,1.65087,0.04154
622,1.65047,0.0418
623,1.65008,0.04208
624,1.64969,0.04241
625,1.64929,0.04274
626,1.6489,0.04307
627,1.64851,0.0434
628,1.64811,0.04373
629,1.64772,0.04406
630,1.64732,0.04439
631,1.64693,0.04472
632,1.64654,0.04505
633,1.64614,0.04538
634,1.64575,0.04571
635,1.64536,0.04604
636,1.64497,0.04637
637,1.64462,0.0467
638,1.64427,0.04703
639,1.64392,0.04736
640,1.64358,0.04768
641,1.64323,0.04801
642,1.64288,0.04834
643,1.64253,0.04867
644,1.64219,0.04899
645,1.64184,0.04932
646,1.64149,0.04965
647,1.64114,0.04997
648,1.64079,0.0503
649,1.64045,0.05063
650,1.6401,0.05096
651,1.63975,0.05128
652,1.6394,0.05161
653,1.63906,0.05181
654,1.63871,0.05199
655,1.63836,0.05217
656,1.63801,0.05235
657,1.63767,0.05254
658,1.63732,0.05272
659,1.63697,0.0529
660,1.63662,0.05308
661,1.63628,0.05327
662,1.63593,0.05345
663,1.63558,0.05363
664,1.63523,0.05381
665,1.63489,0.054
666,1.6346,0.05418
667,1.63439,0.05436
668,1.63419,0.05455
669,1.63399,0.05473
670,1.63379,0.05491
671,1.63358,0.05516
672,1.63338,0.05546
673,1.63318,0.05577
674,1.63298,0.05608
675,1.63278,0.05638
676,1.63257,0.05669
677,1.63237,0.05699
678,1.63217,0.0573
679,1.63197,0.0576
680,1.63176,0.05791
681,1.63156,0.05821
682,1.63136,0.05852
683,1.63116,0.05882
684,1.63096,0.05913
685,1.63075,0.05944
686,1.63055,0.05974
687,1.63035,0.06005
688,1.63015,0.06035
689,1.62994,0.06066
690,1.62974,0.06096
691,1.62954,0.06127
692,1.62934,0.06157
693,1.62914,0.06188
694,1.62893,0.06217
695,1.62873,0.06247
696,1.62853,0.06277
697,1.62833,0.06307
698,1.62812,0.06337
699,1.62792,0.06367
700,1.62773,0.06396
701,1.62753,0.06426
702,1.62734,0.06456
703,1.62715,0.06486
704,1.62695,0.06516
705,1.62676,0.06546
706,1.62656,0.06575
707,1.62637,0.06605
708,1.62617,0.06635
709,1.62598,0.06665
710,1.62579,0.06695
711,1.62559,0.06725
712,1.6254,0.06754
713,1.6252,0.06784
714,1.62501,0.06814
715,1.62482,0.06844
716,1.62462,0.06874
717,1.62443,0.06902
718,1.62423,0.06929
719,1.62404,0.06957
720,1.62385,0.06984
721,1.62365,0.07012
722,1.62346,0.07039
723,1.62326,0.07066
724,1.62307,0.07094
725,1.62287,0.07121
726,1.62268,0.07148
727,1.62249,0.07176
728,1.62229,0.07203
729,1.6221,0.07231
730,1.6219,0.07258
731,1.62171,0.07285
732,1.62152,0.07313
733,1.62132,0.0734
734,1.62113,0.07368
735,1.62103,0.07395
736,1.62097,0.07422
737,1.62091,0.0745
738,1.62085,0.07477
739,1.62079,0.07505
740,1.62073,0.07532
741,1.62067,0.07559
742,1.62061,0.07587
743,1.62055,0.07614
744,1.62049,0.07641
745,1.62043,0.07662
746,1.62037,0.07684
747,1.62031,0.07705
748,1.62025,0.07726
749,1.62019,0.07748
750,1.62013,0.07769
751,1.62006,0.07791
752,1.62,0.07812
753,1.61994,0.07833
754,1.61988,0.07855
755,1.61982,0.07876
756,1.61976,0.07898
757,1.6197,0.07919
758,1.61964,0.0794
759,1.61958,0.07962
760,1.61952,0.07983
761,1.61946,0.08005
762,1.6194,0.08026
763,1.61919,0.08047
764,1.61896,0.08069
765,1.61873,0.0809
766,1.6185,0.08112
767,1.61827,0.08133
768,1.61803,0.08154
769,1.6178,0.08176
770,1.61757,0.08197
771,1.61734,0.08219
772,1.61711,0.08243
773,1.61687,0.0827
774,1.61664,0.08297
775,1.61641,0.08324
776,1.61618,0.08351
777,1.61595,0.08378
778,1.61571,0.08404
779,1.61548,0.08431
780,1.61525,0.08458
781,1.61502,0.08485
782,1.61479,0.08512
783,1.61455,0.08539
784,1.61432,0.08566
785,1.61418,0.08592
786,1.61409,0.08619
787,1.614,0.08646
788,1.61391,0.08673
789,1.61382,0.087
790,1.61372,0.08727
791,1.61363,0.08753
792,1.61354,0.0878
793,1.61345,0.08807
794,1.61336,0.08834
795,1.61327,0.08861
796,1.61318,0.08888
797,1.61309,0.08915
798,1.613,0.08941
799,1.6129,0.08968
800,1.61281,0.08995
801,1.61272,0.09022
802,1.61263,0.09049
803,1.61255,0.09073
804,1.61255,0.09093
805,1.61255,0.09112
806,1.61255,0.09132
807,1.61255,0.09151
808,1.61255,0.09171
809,1.61255,0.09191
810,1.61255,0.0921
811,1.61255,0.0923
812,1.61255,0.0925
813,1.61255,0.09269
814,1.61255,0.09289
815,1.61255,0.09308
816,1.61255,0.09328
817,1.61255,0.09348
818,1.61255,0.09367
819,1.61255,0.09387
820,1.61255,0.09407
821,1.61255,0.09426
822,1.61255,0.09446
823,1.61255,0.09465
824,1.61255,0.09485
825,1.61255,0.09505
826,1.61255,0.09524
827,1.61255,0.09544
828,1.61255,0.09564
829,1.61255,0.09583
830,1.61255,0.09603
831,1.61255,0.09622
832,1.61255,0.09642
833,1.61255,0.09662
834,1.61255,0.09681
835,1.61255,0.09701
836,1.61255,0.09721
837,1.61255,0.0974
838,1.61255,0.0976
839,1.61255,0.09779
840,1.61255,0.09799
841,1.61255,0.09819
842,1.61255,0.09837
843,1.61255,0.09854
844,1.61255,0.09872
845,1.61255,0.0989
846,1.61255,0.09908
847,1.61255,0.09925
848,1.61255,0.09943
849,1.61255,0.09961
850,1.61255,0.09979
851,1.61255,0.09997
852,1.61255,0.10014
853,1.61255,0.10032
854,1.61255,0.1005
855,1.61255,0.10068
856,1.61255,0.10085
857,1.61255,0.10103
858,1.61255,0.10121
859,1.61255,0.10139
860,1.61255,0.10156
861,1.61255,0.10174
862,1.61255,0.10192
863,1.61255,0.1021
864,1.61255,0.10227
865,1.61255,0.10245
866,1.61255,0.10263
867,1.61249,0.10281
868,1.61243,0.10298
869,1.61237,0.10316
870,1.61231,0.10334
871,1.61225,0.10352
872,1.61219,0.10369
873,1.61213,0.10387
874,1.61207,0.10405
875,1.612,0.10423
876,1.61194,0.10441
877,1.61188,0.1046
878,1.61182,0.10478
879,1.61176,0.10496
880,1.6117,0.10515
881,1.61164,0.10533
882,1.61158,0.10551
883,1.61152,0.1057
884,1.61146,0.10588
885,1.6114,0.10606
886,1.61134,0.10625
887,1.61128,0.10643
888,1.61122,0.10661
889,1.61115,0.1068
890,1.61109,0.10698
891,1.61103,0.10716
892,1.61097,0.10735
893,1.61091,0.10753
894,1.61086,0.10771
895,1.61086,0.1079
896,1.61086,0.10808
897,1.61086,0.10826
898,1.61086,0.10845
899,1.61086,0.10863
900,1.61086,0.10881
901,1.61086,0.109
902,1.61086,0.10917
903,1.61086,0.10931
904,1.61086,0.10946
905,1.61086,0.1096
906,1.61086,0.10975
907,1.61086,0.10989
908,1.61086,0.11004
909,1.61086,0.11018
910,1.61086,0.11032
911,1.61086,0.11047
912,1.61086,0.11061
913,1.61086,0.11076
914,1.61086,0.1109
915,1.61086,0.11105
916,1.61086,0.11119
917,1.61086,0.11133
918,1.61086,0.11148
919,1.61086,0.11162
920,1.61086,0.11177
921,1.61086,0.11191
922,1.61086,0.11206
923,1.61086,0.1122
924,1.61086,0.11234
925,1.61086,0.11249
926,1.61086,0.11263
927,1.61086,0.11278
928,1.61086,0.11292
929,1.61086,0.11307
930,1.61086,0.11321
931,1.61086,0.11335
932,1.61086,0.1135
933,1.61086,0.11364
934,1.61086,0.11379
935,1.61086,0.11393
936,1.61086,0.11408
937,1.61086,0.11422
938,1.61086,0.11436
939,1.61086,0.11451
940,1.61086,0.11465
941,1.61086,0.11479
942,1.61086,0.11493
943,1.61076,0.11508
944,1.61066,0.11522
945,1.61055,0.11536
946,1.61045,0.11551
947,1.61035,0.11565
948,1.61024,0.11579
949,1.61014,0.11593
950,1.61003,0.11608
951,1.60993,0.11622
952,1.60983,0.11636
953,1.60972,0.11651
954,1.60962,0.11665
955,1.60952,0.11679
956,1.60941,0.11693
957,1.60931,0.11708
958,1.6092,0.11722
959,1.6091,0.11736
960,1.609,0.1175
961,1.60889,0.11765
962,1.60879,0.11779
963,1.60869,0.11793
964,1.60858,0.11808
965,1.60848,0.11822
966,1.60838,0.11836
967,1.60827,0.1185
968,1.60817,0.11865
969,1.60806,0.11879
970,1.60796,0.11893
971,1.60786,0.11908
972,1.60775,0.11922
973,1.60765,0.11936
974,1.60755,0.1195
975,1.60744,0.11965
976,1.60745,0.11979
977,1.60754,0.11993
978,1.60763,0.12008
979,1.60772,0.12022
980,1.60781,0.12036
981,1.6079,0.12051
982,1.608,0.12065
983,1.60809,0.1208
984,1.60818,0.12094
985,1.60827,0.12109
986,1.60836,0.12123
987,1.60845,0.12138
988,1.60854,0.12152
989,1.60863,0.12167
990,1.60872,0.12181
991,1.60882,0.12196
992,1.60891,0.12211
993,1.609,0.12225
994,1.60907,0.1224
995,1.60816,0.12254
996,1.60725,0.12269
997,1.60634,0.12283
998,1.60543,0.12298
999,1.60452,0.12312
1000,1.60361,0.12327