Wavelength (nm),PTAAMartin_n,PTAAMartin_k
300,1.54252,0.13628
301,1.53952,0.14087
302,1.53673,0.14568
303,1.53416,0.15073
304,1.53185,0.15601
305,1.52982,0.1615
306,1.5281,0.1672
307,1.52672,0.17309
308,1.52573,0.17914
309,1.52514,0.18533
310,1.52499,0.19163
311,1.5253,0.19799
312,1.52609,0.20438
313,1.52739,0.21072
314,1.5292,0.21698
315,1.53153,0.22309
316,1.53437,0.22897
317,1.53768,0.23458
318,1.54146,0.23984
319,1.54565,0.2447
320,1.5502,0.24909
321,1.55505,0.25296
322,1.56013,0.2563
323,1.56536,0.25905
324,1.57064,0.26124
325,1.57592,0.26284
326,1.5811,0.26388
327,1.5861,0.26439
328,1.59085,0.26441
329,1.59531,0.26398
330,1.5994,0.26319
331,1.60309,0.26208
332,1.60636,0.26073
333,1.60919,0.25921
334,1.61157,0.25758
335,1.6135,0.25593
336,1.61499,0.25431
337,1.61607,0.25278
338,1.61677,0.2514
339,1.6171,0.25023
340,1.61712,0.24931
341,1.61686,0.24867
342,1.61638,0.24836
343,1.61571,0.2484
344,1.61492,0.24882
345,1.61405,0.24965
346,1.61315,0.25088
347,1.6123,0.25253
348,1.61155,0.2546
349,1.61095,0.25708
350,1.61058,0.25997
351,1.6105,0.26323
352,1.61077,0.26685
353,1.61144,0.27077
354,1.61259,0.27495
355,1.61426,0.27932
356,1.61649,0.28382
357,1.61932,0.28835
358,1.62279,0.29283
359,1.62686,0.29715
360,1.63158,0.30121
361,1.63688,0.30492
362,1.64271,0.30815
363,1.64901,0.31084
364,1.65568,0.31288
365,1.66262,0.31422
366,1.66972,0.31481
367,1.67683,0.31464
368,1.68384,0.31371
369,1.69062,0.31204
370,1.69704,0.30969
371,1.703,0.30675
372,1.70842,0.30329
373,1.71321,0.29941
374,1.71733,0.29524
375,1.72074,0.29087
376,1.72343,0.28645
377,1.72539,0.28207
378,1.72664,0.27785
379,1.72722,0.27391
380,1.72715,0.27035
381,1.7265,0.26728
382,1.72533,0.2648
383,1.72372,0.263
384,1.72175,0.26199
385,1.71954,0.26184
386,1.7172,0.26268
387,1.71489,0.26458
388,1.71279,0.26762
389,1.71113,0.27188
390,1.71018,0.27738
391,1.71024,0.28411
392,1.7117,0.29201
393,1.71495,0.30085
394,1.72036,0.31033
395,1.72832,0.31996
396,1.73909,0.32908
397,1.75269,0.33689
398,1.76886,0.34255
399,1.78705,0.34526
400,1.80641,0.34441
401,1.8259,0.33971
402,1.84442,0.33136
403,1.86107,0.31984
404,1.87521,0.30592
405,1.8865,0.29041
406,1.89491,0.27414
407,1.90065,0.25778
408,1.90402,0.24184
409,1.90542,0.22667
410,1.90522,0.21248
411,1.90376,0.19935
412,1.90138,0.18731
413,1.89829,0.17634
414,1.89471,0.16635
415,1.8908,0.15728
416,1.88667,0.14904
417,1.88241,0.14156
418,1.87811,0.13475
419,1.8738,0.12854
420,1.86953,0.12287
421,1.86531,0.11768
422,1.86119,0.11292
423,1.85716,0.10854
424,1.85323,0.1045
425,1.8494,0.10077
426,1.84568,0.0973
427,1.84207,0.09409
428,1.83858,0.0911
429,1.83519,0.0883
430,1.83189,0.08569
431,1.82871,0.08324
432,1.82562,0.08094
433,1.82262,0.07878
434,1.81972,0.07674
435,1.8169,0.07481
436,1.81417,0.073
437,1.81151,0.07128
438,1.80893,0.06964
439,1.80643,0.06808
440,1.804,0.06661
441,1.80162,0.0652
442,1.79932,0.06386
443,1.79708,0.06258
444,1.79489,0.06136
445,1.79277,0.06019
446,1.79071,0.05907
447,1.78868,0.05798
448,1.78671,0.05695
449,1.7848,0.05596
450,1.78292,0.05501
451,1.78109,0.05409
452,1.77931,0.05321
453,1.77756,0.05235
454,1.77586,0.05154
455,1.77419,0.05074
456,1.77255,0.04998
457,1.77096,0.04924
458,1.7694,0.04852
459,1.76787,0.04783
460,1.76637,0.04716
461,1.76491,0.0465
462,1.76347,0.04588
463,1.76206,0.04527
464,1.76069,0.04467
465,1.75933,0.0441
466,1.75801,0.04354
467,1.75671,0.043
468,1.75543,0.04247
469,1.75418,0.04196
470,1.75294,0.04146
471,1.75173,0.04097
472,1.75055,0.0405
473,1.74939,0.04003
474,1.74824,0.03958
475,1.74712,0.03915
476,1.74601,0.03872
477,1.74492,0.0383
478,1.74385,0.0379
479,1.7428,0.0375
480,1.74176,0.03711
481,1.74075,0.03673
482,1.73975,0.03636
483,1.73876,0.036
484,1.73779,0.03565
485,1.73684,0.0353
486,1.7359,0.03496
487,1.73497,0.03463
488,1.73406,0.03431
489,1.73316,0.03399
490,1.73228,0.03368
491,1.7314,0.03338
492,1.73055,0.03308
493,1.7297,0.03278
494,1.72886,0.03249
495,1.72804,0.03222
496,1.72723,0.03194
497,1.72643,0.03167
498,1.72564,0.03141
499,1.72487,0.03115
500,1.7241,0.03089
501,1.72333,0.03064
502,1.72259,0.0304
503,1.72185,0.03016
504,1.72113,0.02992
505,1.72041,0.02969
506,1.7197,0.02946
507,1.719,0.02923
508,1.7183,0.02902
509,1.71762,0.02879
510,1.71695,0.02858
511,1.71628,0.02838
512,1.71563,0.02817
513,1.71498,0.02796
514,1.71434,0.02776
515,1.7137,0.02757
516,1.71308,0.02738
517,1.71246,0.02718
518,1.71185,0.027
519,1.71124,0.02682
520,1.71064,0.02663
521,1.71006,0.02645
522,1.70948,0.02628
523,1.7089,0.02611
524,1.70833,0.02593
525,1.70776,0.02577
526,1.70721,0.0256
527,1.70666,0.02544
528,1.70612,0.02528
529,1.70557,0.02512
530,1.70504,0.02496
531,1.70452,0.02481
532,1.70399,0.02466
533,1.70347,0.02451
534,1.70296,0.02436
535,1.70246,0.02421
536,1.70196,0.02407
537,1.70147,0.02393
538,1.70098,0.02379
539,1.70049,0.02365
540,1.70002,0.02351
541,1.69954,0.02338
542,1.69907,0.02325
543,1.6986,0.02311
544,1.69814,0.02299
545,1.69769,0.02286
546,1.69724,0.02274
547,1.69679,0.02261
548,1.69635,0.02249
549,1.69591,0.02236
550,1.69548,0.02225
551,1.69505,0.02213
552,1.69463,0.02201
553,1.69421,0.0219
554,1.69378,0.02178
555,1.69337,0.02167
556,1.69296,0.02155
557,1.69256,0.02145
558,1.69215,0.02134
559,1.69176,0.02123
560,1.69136,0.02112
561,1.69097,0.02102
562,1.69058,0.02091
563,1.6902,0.02081
564,1.68982,0.02071
565,1.68944,0.02061
566,1.68907,0.02051
567,1.6887,0.02041
568,1.68833,0.02031
569,1.68797,0.02022
570,1.68761,0.02012
571,1.68725,0.02003
572,1.6869,0.01994
573,1.68655,0.01985
574,1.6862,0.01975
575,1.68586,0.01966
576,1.68552,0.01957
577,1.68518,0.01949
578,1.68484,0.0194
579,1.6845,0.01931
580,1.68417,0.01923
581,1.68385,0.01914
582,1.68352,0.01906
583,1.6832,0.01898
584,1.68288,0.01889
585,1.68256,0.01881
586,1.68225,0.01873
587,1.68194,0.01865
588,1.68163,0.01857
589,1.68132,0.0185
590,1.68102,0.01842
591,1.68072,0.01834
592,1.68041,0.01826
593,1.68012,0.01819
594,1.67983,0.01812
595,1.67953,0.01804
596,1.67924,0.01796
597,1.67896,0.01789
598,1.67867,0.01782
599,1.67839,0.01775
600,1.67811,0.01768
601,1.67783,0.01761
602,1.67755,0.01754
603,1.67727,0.01747
604,1.67701,0.0174
605,1.67673,0.01734
606,1.67647,0.01727
607,1.6762,0.01721
608,1.67593,0.01714
609,1.67567,0.01707
610,1.67542,0.01701
611,1.67515,0.01695
612,1.67489,0.01688
613,1.67465,0.01682
614,1.67439,0.01675
615,1.67414,0.0167
616,1.67389,0.01663
617,1.67364,0.01657
618,1.6734,0.01652
619,1.67315,0.01645
620,1.67291,0.01639
621,1.67267,0.01633
622,1.67244,0.01628
623,1.6722,0.01622
624,1.67196,0.01616
625,1.67172,0.0161
626,1.67149,0.01605
627,1.67127,0.01599
628,1.67104,0.01594
629,1.67081,0.01588
630,1.67059,0.01582
631,1.67036,0.01577
632,1.67014,0.01572
633,1.66992,0.01566
634,1.6697,0.01561
635,1.66948,0.01556
636,1.66926,0.01551
637,1.66905,0.01545
638,1.66884,0.0154
639,1.66863,0.01535
640,1.66842,0.0153
641,1.66821,0.01526
642,1.668,0.01521
643,1.66779,0.01516
644,1.66759,0.01511
645,1.66738,0.01506
646,1.66718,0.01501
647,1.66698,0.01496
648,1.66679,0.01492
649,1.66658,0.01487
650,1.66639,0.01482
651,1.6662,0.01477
652,1.666,0.01472
653,1.66581,0.01468
654,1.66561,0.01463
655,1.66542,0.01459
656,1.66523,0.01455
657,1.66505,0.0145
658,1.66486,0.01445
659,1.66467,0.01441
660,1.66449,0.01437
661,1.6643,0.01432
662,1.66413,0.01428
663,1.66394,0.01424
664,1.66376,0.0142
665,1.66358,0.01415
666,1.66341,0.01411
667,1.66323,0.01407
668,1.66305,0.01402
669,1.66288,0.01399
670,1.6627,0.01394
671,1.66254,0.01391
672,1.66236,0.01386
673,1.66219,0.01382
674,1.66202,0.01378
675,1.66186,0.01375
676,1.66169,0.01371
677,1.66153,0.01367
678,1.66136,0.01363
679,1.6612,0.01359
680,1.66103,0.01355
681,1.66087,0.01352
682,1.66071,0.01348
683,1.66054,0.01344
684,1.66039,0.0134
685,1.66023,0.01336
686,1.66007,0.01333
687,1.65992,0.01329
688,1.65976,0.01325
689,1.65961,0.01322
690,1.65945,0.01318
691,1.6593,0.01315
692,1.65914,0.01311
693,1.659,0.01308
694,1.65885,0.01304
695,1.65869,0.013
696,1.65855,0.01297
697,1.6584,0.01294
698,1.65826,0.0129
699,1.65811,0.01287
700,1.65797,0.01284
701,1.65782,0.0128
702,1.65768,0.01277
703,1.65754,0.01273
704,1.6574,0.0127
705,1.65725,0.01267
706,1.65711,0.01263
707,1.65697,0.0126
708,1.65683,0.01257
709,1.6567,0.01254
710,1.65656,0.01251
711,1.65642,0.01248
712,1.65629,0.01244
713,1.65615,0.01241
714,1.65602,0.01238
715,1.65589,0.01235
716,1.65575,0.01232
717,1.65562,0.01229
718,1.65549,0.01226
719,1.65536,0.01223
720,1.65523,0.0122
721,1.6551,0.01217
722,1.65497,0.01214
723,1.65484,0.01211
724,1.65472,0.01208
725,1.65459,0.01205
726,1.65447,0.01202
727,1.65434,0.01199
728,1.65422,0.01197
729,1.6541,0.01194
730,1.65397,0.01191
731,1.65385,0.01188
732,1.65373,0.01185
733,1.65361,0.01182
734,1.65348,0.0118
735,1.65336,0.01177
736,1.65325,0.01174
737,1.65313,0.01171
738,1.65301,0.01168
739,1.65289,0.01166
740,1.65278,0.01163
741,1.65266,0.0116
742,1.65254,0.01158
743,1.65243,0.01156
744,1.65231,0.01153
745,1.6522,0.0115
746,1.65209,0.01147
747,1.65198,0.01145
748,1.65186,0.01142
749,1.65175,0.01139
750,1.65164,0.01137
751,1.65154,0.01134
752,1.65143,0.01132
753,1.65131,0.0113
754,1.6512,0.01127
755,1.6511,0.01124
756,1.65099,0.01122
757,1.65089,0.01119
758,1.65078,0.01117
759,1.65067,0.01115
760,1.65056,0.01112
761,1.65046,0.01109
762,1.65035,0.01107
763,1.65025,0.01105
764,1.65014,0.01103
765,1.65005,0.011
766,1.64995,0.01097
767,1.64984,0.01095
768,1.64974,0.01093
769,1.64964,0.01091
770,1.64954,0.01088
771,1.64944,0.01086
772,1.64934,0.01084
773,1.64924,0.01082
774,1.64914,0.01079
775,1.64905,0.01077
776,1.64895,0.01075
777,1.64885,0.01072
778,1.64876,0.0107
779,1.64866,0.01068
780,1.64856,0.01066
781,1.64847,0.01063
782,1.64837,0.01061
783,1.64828,0.01059
784,1.64818,0.01057
785,1.64809,0.01055
786,1.648,0.01052
787,1.64791,0.01051
788,1.64781,0.01048
789,1.64772,0.01047
790,1.64763,0.01044
791,1.64754,0.01042
792,1.64745,0.0104
793,1.64736,0.01038
794,1.64727,0.01036
795,1.64718,0.01034
796,1.64709,0.01032
797,1.64701,0.0103
798,1.64692,0.01027
799,1.64683,0.01026
800,1.64674,0.01023
801,1.64666,0.01021
802,1.64657,0.0102
803,1.64648,0.01017
804,1.6464,0.01016
805,1.64631,0.01014
806,1.64623,0.01012
807,1.64614,0.0101
808,1.64606,0.01008
809,1.64598,0.01006
810,1.6459,0.01004
811,1.64581,0.01002
812,1.64573,0.01
813,1.64565,0.00998
814,1.64556,0.00996
815,1.64549,0.00995
816,1.6454,0.00992
817,1.64532,0.00991
818,1.64524,0.00989
819,1.64517,0.00987
820,1.64508,0.00985
821,1.64501,0.00983
822,1.64493,0.00981
823,1.64485,0.0098
824,1.64477,0.00977
825,1.64469,0.00976
826,1.64461,0.00974
827,1.64454,0.00972
828,1.64446,0.0097
829,1.64438,0.00969
830,1.64431,0.00967
831,1.64424,0.00965
832,1.64416,0.00963
833,1.64408,0.00962
834,1.64401,0.0096
835,1.64394,0.00958
836,1.64386,0.00957
837,1.64378,0.00955
838,1.64371,0.00953
839,1.64364,0.00951
840,1.64357,0.00949
841,1.6435,0.00948
842,1.64342,0.00946
843,1.64335,0.00945
844,1.64327,0.00943
845,1.6432,0.00941
846,1.64313,0.00939
847,1.64306,0.00938
848,1.64299,0.00936
849,1.64292,0.00934
850,1.64285,0.00933
851,1.64278,0.00931
852,1.64271,0.00929
853,1.64264,0.00928
854,1.64258,0.00926
855,1.64251,0.00925
856,1.64244,0.00923
857,1.64238,0.00922
858,1.64231,0.0092
859,1.64224,0.00918
860,1.64217,0.00917
861,1.6421,0.00915
862,1.64203,0.00913
863,1.64197,0.00912
864,1.64191,0.00911
865,1.64184,0.00909
866,1.64177,0.00907
867,1.64171,0.00906
868,1.64165,0.00904
869,1.64158,0.00903
870,1.64152,0.00902
871,1.64145,0.009
872,1.64139,0.00898
873,1.64133,0.00897
874,1.64126,0.00895
875,1.6412,0.00894
876,1.64114,0.00893
877,1.64107,0.00891
878,1.64101,0.00889
879,1.64095,0.00888
880,1.64089,0.00886
881,1.64083,0.00885
882,1.64077,0.00884
883,1.6407,0.00882
884,1.64064,0.00881
885,1.64058,0.00879
886,1.64052,0.00878
887,1.64046,0.00876
888,1.6404,0.00875
889,1.64034,0.00874
890,1.64029,0.00872
891,1.64023,0.0087
892,1.64017,0.00869
893,1.6401,0.00868
894,1.64005,0.00866
895,1.63999,0.00865
896,1.63993,0.00864
897,1.63988,0.00863
898,1.63982,0.00861
899,1.63976,0.00859
900,1.6397,0.00858
901,1.63964,0.00857
902,1.63959,0.00855
903,1.63953,0.00854
904,1.63948,0.00853
905,1.63942,0.00852
906,1.63937,0.0085
907,1.63931,0.00849
908,1.63925,0.00847
909,1.6392,0.00846
910,1.63915,0.00845
911,1.63909,0.00843
912,1.63904,0.00842
913,1.63898,0.00841
914,1.63893,0.0084
915,1.63887,0.00838
916,1.63882,0.00837
917,1.63876,0.00836
918,1.63871,0.00835
919,1.63866,0.00834
920,1.6386,0.00832
921,1.63855,0.0083
922,1.63851,0.00829
923,1.63845,0.00828
924,1.6384,0.00827
925,1.63835,0.00826
926,1.63829,0.00824
927,1.63824,0.00823
928,1.63819,0.00822
929,1.63814,0.00821
930,1.63809,0.0082
931,1.63804,0.00819
932,1.63799,0.00817
933,1.63794,0.00816
934,1.63788,0.00815
935,1.63784,0.00813
936,1.63779,0.00812
937,1.63774,0.00811
938,1.63769,0.00809
939,1.63764,0.00808
940,1.63759,0.00807
941,1.63754,0.00806
942,1.63749,0.00805
943,1.63744,0.00804
944,1.6374,0.00803
945,1.63735,0.00801
946,1.6373,0.008
947,1.63725,0.00799
948,1.6372,0.00798
949,1.63715,0.00797
950,1.63711,0.00796
951,1.63706,0.00795
952,1.63702,0.00794
953,1.63697,0.00793
954,1.63692,0.00791
955,1.63687,0.0079
956,1.63683,0.00789
957,1.63678,0.00788
958,1.63674,0.00787
959,1.6367,0.00786
960,1.63665,0.00785
961,1.6366,0.00784
962,1.63656,0.00783
963,1.63651,0.00782
964,1.63647,0.0078
965,1.63642,0.00779
966,1.63637,0.00778
967,1.63633,0.00777
968,1.63629,0.00776
969,1.63624,0.00775
970,1.6362,0.00774
971,1.63616,0.00773
972,1.63611,0.00772
973,1.63607,0.00771
974,1.63603,0.0077
975,1.63598,0.00769
976,1.63593,0.00768
977,1.63589,0.00767
978,1.63585,0.00765
979,1.63581,0.00764
980,1.63576,0.00763
981,1.63572,0.00762
982,1.63568,0.00761
983,1.63564,0.0076
984,1.6356,0.00759
985,1.63556,0.00758
986,1.63551,0.00757
987,1.63547,0.00756
988,1.63543,0.00755
989,1.63539,0.00754
990,1.63535,0.00753
991,1.63531,0.00752
992,1.63527,0.00751
993,1.63523,0.0075
994,1.63519,0.00749
995,1.63514,0.00748
996,1.6351,0.00747
997,1.63506,0.00746
998,1.63502,0.00745
999,1.63498,0.00744
1000,1.63495,0.00743
1001,1.63491,0.00742
1002,1.63487,0.00741
1003,1.63483,0.0074
1004,1.63479,0.00739
1005,1.63475,0.00738
1006,1.63471,0.00737
1007,1.63467,0.00736
1008,1.63463,0.00735
1009,1.63459,0.00734
1010,1.63456,0.00733
1011,1.63452,0.00732
1012,1.63448,0.00731
1013,1.63444,0.0073
1014,1.6344,0.00729
1015,1.63437,0.00728
1016,1.63433,0.00727
1017,1.63429,0.00726
1018,1.63425,0.00725
1019,1.63422,0.00724
1020,1.63418,0.00723
1021,1.63414,0.00722
1022,1.63411,0.00722
1023,1.63407,0.00721
1024,1.63404,0.0072
1025,1.634,0.00719
1026,1.63396,0.00718
1027,1.63392,0.00717
1028,1.63389,0.00716
1029,1.63385,0.00715
1030,1.63382,0.00714
1031,1.63378,0.00713
1032,1.63374,0.00713
1033,1.63371,0.00712
1034,1.63367,0.00711
1035,1.63364,0.0071
1036,1.6336,0.00709
1037,1.63357,0.00708
1038,1.63353,0.00707
1039,1.6335,0.00706
1040,1.63346,0.00705
1041,1.63343,0.00704
1042,1.63339,0.00703
1043,1.63336,0.00703
1044,1.63332,0.00702
1045,1.63329,0.00701
1046,1.63325,0.007
1047,1.63322,0.007
1048,1.63319,0.00699
1049,1.63316,0.00698
1050,1.63312,0.00697
1051,1.63308,0.00696
1052,1.63305,0.00695
1053,1.63302,0.00694
1054,1.63299,0.00693
1055,1.63296,0.00692
1056,1.63292,0.00691
1057,1.63289,0.0069
1058,1.63285,0.00689
1059,1.63282,0.00689
1060,1.63279,0.00688
1061,1.63276,0.00687
1062,1.63273,0.00687
1063,1.6327,0.00686
1064,1.63266,0.00685
1065,1.63263,0.00684
1066,1.63259,0.00683
1067,1.63256,0.00682
1068,1.63253,0.00682
1069,1.6325,0.00681
1070,1.63247,0.0068
1071,1.63244,0.00679
1072,1.63241,0.00678
1073,1.63238,0.00677
1074,1.63234,0.00676
1075,1.63231,0.00675
1076,1.63228,0.00675
1077,1.63225,0.00674
1078,1.63222,0.00674
1079,1.63219,0.00673
1080,1.63216,0.00672
1081,1.63213,0.00671
1082,1.63209,0.0067
1083,1.63206,0.00669
1084,1.63203,0.00669
1085,1.632,0.00668
1086,1.63197,0.00667
1087,1.63194,0.00666
1088,1.63191,0.00665
1089,1.63188,0.00664
1090,1.63185,0.00664
1091,1.63182,0.00663
1092,1.63179,0.00663
1093,1.63176,0.00662
1094,1.63173,0.00661
1095,1.6317,0.0066
1096,1.63167,0.00659
1097,1.63165,0.00659
1098,1.63162,0.00658
1099,1.6316,0.00657
1100,1.63157,0.00656