Wavelength (nm),ZnOnanoVLC_n,ZnOnanoVLC_k
300,1.37462,0.09374
301,1.37675,0.09306
302,1.37875,0.09224
303,1.3807,0.09137
304,1.38257,0.09042
305,1.38434,0.08938
306,1.38605,0.0883
307,1.38765,0.08714
308,1.38917,0.08593
309,1.39064,0.0847
310,1.39199,0.08339
311,1.39328,0.08207
312,1.3945,0.08071
313,1.39561,0.07932
314,1.39668,0.07792
315,1.39766,0.07649
316,1.39856,0.07505
317,1.39942,0.0736
318,1.40018,0.07213
319,1.40089,0.07067
320,1.40154,0.0692
321,1.4021,0.06773
322,1.40263,0.06626
323,1.40309,0.0648
324,1.40349,0.06335
325,1.40386,0.0619
326,1.40414,0.06047
327,1.4044,0.05905
328,1.40461,0.05764
329,1.40475,0.05626
330,1.40487,0.05488
331,1.40494,0.05352
332,1.40497,0.05218
333,1.40497,0.05086
334,1.40492,0.04956
335,1.40485,0.04828
336,1.40474,0.04702
337,1.40459,0.04579
338,1.40443,0.04458
339,1.40423,0.04338
340,1.404,0.04222
341,1.40376,0.04107
342,1.40348,0.03995
343,1.40318,0.03885
344,1.40287,0.03777
345,1.40253,0.03673
346,1.40218,0.0357
347,1.40181,0.03469
348,1.40142,0.03371
349,1.40103,0.03275
350,1.40061,0.03181
351,1.40018,0.0309
352,1.39975,0.03
353,1.3993,0.02914
354,1.39884,0.02829
355,1.39837,0.02746
356,1.39789,0.02666
357,1.39741,0.02587
358,1.39692,0.02511
359,1.39642,0.02437
360,1.39592,0.02364
361,1.39542,0.02294
362,1.39491,0.02225
363,1.39439,0.02159
364,1.39388,0.02094
365,1.39336,0.02031
366,1.39284,0.0197
367,1.39231,0.0191
368,1.39179,0.01852
369,1.39127,0.01796
370,1.39074,0.01742
371,1.39022,0.01689
372,1.3897,0.01637
373,1.38917,0.01587
374,1.38865,0.01539
375,1.38813,0.01492
376,1.38761,0.01446
377,1.3871,0.01402
378,1.38658,0.01359
379,1.38607,0.01317
380,1.38556,0.01277
381,1.38506,0.01237
382,1.38455,0.01199
383,1.38405,0.01163
384,1.38356,0.01127
385,1.38306,0.01092
386,1.38257,0.01058
387,1.38209,0.01026
388,1.3816,0.00994
389,1.38113,0.00963
390,1.38065,0.00934
391,1.38018,0.00905
392,1.37971,0.00877
393,1.37925,0.0085
394,1.37879,0.00824
395,1.37834,0.00798
396,1.37789,0.00774
397,1.37744,0.0075
398,1.377,0.00727
399,1.37656,0.00705
400,1.37613,0.00683
401,1.3757,0.00662
402,1.37528,0.00642
403,1.37486,0.00622
404,1.37444,0.00603
405,1.37403,0.00584
406,1.37362,0.00566
407,1.37322,0.00549
408,1.37282,0.00532
409,1.37243,0.00516
410,1.37204,0.005
411,1.37166,0.00485
412,1.37128,0.0047
413,1.3709,0.00456
414,1.37053,0.00442
415,1.37016,0.00429
416,1.3698,0.00416
417,1.36944,0.00403
418,1.36908,0.00391
419,1.36873,0.00379
420,1.36838,0.00368
421,1.36804,0.00357
422,1.3677,0.00346
423,1.36736,0.00335
424,1.36703,0.00325
425,1.3667,0.00316
426,1.36638,0.00306
427,1.36606,0.00297
428,1.36574,0.00288
429,1.36543,0.00279
430,1.36512,0.00271
431,1.36482,0.00263
432,1.36451,0.00255
433,1.36422,0.00248
434,1.36392,0.0024
435,1.36363,0.00233
436,1.36334,0.00226
437,1.36306,0.0022
438,1.36277,0.00213
439,1.3625,0.00207
440,1.36222,0.00201
441,1.36195,0.00195
442,1.36168,0.00189
443,1.36141,0.00184
444,1.36115,0.00178
445,1.36089,0.00173
446,1.36063,0.00168
447,1.36038,0.00163
448,1.36013,0.00159
449,1.35988,0.00154
450,1.35964,0.0015
451,1.35939,0.00145
452,1.35916,0.00141
453,1.35892,0.00137
454,1.35868,0.00133
455,1.35845,0.00129
456,1.35822,0.00126
457,1.358,0.00122
458,1.35777,0.00119
459,1.35755,0.00115
460,1.35733,0.00112
461,1.35711,0.00109
462,1.3569,0.00106
463,1.35669,0.00103
464,1.35648,9.98814E-4
465,1.35627,9.70578E-4
466,1.35607,9.4335E-4
467,1.35586,9.16763E-4
468,1.35566,8.91665E-4
469,1.35546,8.66952E-4
470,1.35526,8.42507E-4
471,1.35507,8.1929E-4
472,1.35488,7.9661E-4
473,1.35469,7.74648E-4
474,1.3545,7.53733E-4
475,1.35431,7.33176E-4
476,1.35413,7.13096E-4
477,1.35395,6.93421E-4
478,1.35376,6.74035E-4
479,1.35359,6.55837E-4
480,1.35341,6.37928E-4
481,1.35323,6.20357E-4
482,1.35306,6.03873E-4
483,1.35289,5.87728E-4
484,1.35272,5.72039E-4
485,1.35255,5.56776E-4
486,1.35238,5.41769E-4
487,1.35222,5.27335E-4
488,1.35206,5.13209E-4
489,1.35189,4.99402E-4
490,1.35173,4.86159E-4
491,1.35158,4.73172E-4
492,1.35142,4.6062E-4
493,1.35126,4.48514E-4
494,1.35111,4.36664E-4
495,1.35096,4.25367E-4
496,1.35081,4.1407E-4
497,1.35066,4.02773E-4
498,1.35051,3.92645E-4
499,1.35036,3.82603E-4
500,1.35022,3.7256E-4
501,1.35007,3.62985E-4
502,1.34993,3.5357E-4
503,1.34979,3.44155E-4
504,1.34965,3.35091E-4
505,1.34951,3.26303E-4
506,1.34937,3.18122E-4
507,1.34924,3.09962E-4
508,1.3491,3.01802E-4
509,1.34897,2.94131E-4
510,1.34884,2.86715E-4
511,1.34871,2.7981E-4
512,1.34858,2.72904E-4
513,1.34845,2.65999E-4
514,1.34832,2.59094E-4
515,1.34819,2.52444E-4
516,1.34807,2.46167E-4
517,1.34795,2.39889E-4
518,1.34782,2.3375E-4
519,1.3477,2.281E-4
520,1.34758,2.2245E-4
521,1.34746,2.16822E-4
522,1.34734,2.11799E-4
523,1.34722,2.06499E-4
524,1.34711,2.00848E-4
525,1.34699,1.96265E-4
526,1.34687,1.91708E-4
527,1.34676,1.86685E-4
528,1.34665,1.8208E-4
529,1.34654,1.77685E-4
530,1.34642,1.73289E-4
531,1.34631,1.69195E-4
532,1.34621,1.65427E-4
533,1.3461,1.61103E-4
534,1.34599,1.56892E-4
535,1.34588,1.53125E-4
536,1.34578,1.49798E-4
537,1.34567,1.46589E-4
538,1.34557,1.42822E-4
539,1.34547,1.39378E-4
540,1.34536,1.36238E-4
541,1.34526,1.33098E-4
542,1.34516,1.29958E-4
543,1.34506,1.26818E-4
544,1.34496,1.23678E-4
545,1.34487,1.2063E-4
546,1.34477,1.18118E-4
547,1.34467,1.15257E-4
548,1.34458,1.12117E-4
549,1.34448,1.09581E-4
550,1.34439,1.07069E-4
551,1.34429,1.04557E-4
552,1.3442,1.02044E-4
553,1.34411,9.96489E-5
554,1.34402,9.77645E-5
555,1.34393,9.55068E-5
556,1.34384,9.29956E-5
557,1.34375,9.11112E-5
558,1.34366,8.92267E-5
559,1.34357,8.73421E-5
560,1.34348,8.49434E-5
561,1.3434,8.2573E-5
562,1.34331,8.06883E-5
563,1.34322,7.92024E-5
564,1.34314,7.79189E-5
565,1.34306,7.60342E-5
566,1.34297,7.41494E-5
567,1.34289,7.22646E-5
568,1.34281,7.09199E-5
569,1.34273,6.94949E-5
570,1.34264,6.761E-5
571,1.34256,6.615E-5
572,1.34248,6.48934E-5
573,1.3424,6.36366E-5
574,1.34233,6.20699E-5
575,1.34225,6.01848E-5
576,1.34217,5.88664E-5
577,1.34209,5.76096E-5
578,1.34202,5.63529E-5
579,1.34194,5.5096E-5
580,1.34186,5.39196E-5
581,1.34179,5.32911E-5
582,1.34171,5.23254E-5
583,1.34164,5.10684E-5
584,1.34157,4.98115E-5
585,1.34149,4.85545E-5
586,1.34142,4.72975E-5
587,1.34135,4.65202E-5
588,1.34128,4.57833E-5
589,1.34121,4.45262E-5
590,1.34114,4.36345E-5
591,1.34107,4.3006E-5
592,1.341,4.17548E-5
593,1.34093,4.07488E-5
594,1.34086,4.01202E-5
595,1.34079,3.94916E-5
596,1.34072,3.87258E-5
597,1.34066,3.74686E-5
598,1.34059,3.66056E-5
599,1.34052,3.59769E-5
600,1.34046,3.53482E-5
601,1.34039,3.47195E-5
602,1.34033,3.40908E-5
603,1.34026,3.3462E-5
604,1.3402,3.28333E-5
605,1.34013,3.22045E-5
606,1.34007,3.15757E-5
607,1.34001,3.0947E-5
608,1.33995,3.03181E-5
609,1.33988,2.96893E-5
610,1.33982,2.90605E-5
611,1.33976,2.84316E-5
612,1.3397,2.78027E-5
613,1.33964,2.71738E-5
614,1.33958,2.65449E-5
615,1.33952,2.5916E-5
616,1.33946,2.52871E-5
617,1.3394,2.46581E-5
618,1.33934,2.40292E-5
619,1.33928,2.4E-5
620,1.33923,2.37712E-5
621,1.33917,2.31422E-5
622,1.33911,2.25132E-5
623,1.33905,2.2E-5
624,1.339,2.2E-5
625,1.33894,2.1626E-5
626,1.33889,2.09969E-5
627,1.33883,2.03678E-5
628,1.33878,2E-5
629,1.33872,2E-5
630,1.33867,1.94804E-5
631,1.33861,1.88512E-5
632,1.33856,1.8222E-5
633,1.3385,1.8E-5
634,1.33845,1.79637E-5
635,1.3384,1.73344E-5
636,1.33835,1.7E-5
637,1.33829,1.7E-5
638,1.33824,1.64466E-5
639,1.33819,1.6E-5
640,1.33814,1.6E-5
641,1.33809,1.55587E-5
642,1.33804,1.5E-5
643,1.33799,1.5E-5
644,1.33794,1.46706E-5
645,1.33789,1.40412E-5
646,1.33784,1.4E-5
647,1.33779,1.4E-5
648,1.33774,1.4E-5
649,1.33769,1.35234E-5
650,1.33764,1.3E-5
651,1.33759,1.3E-5
652,1.33755,1.26349E-5
653,1.3375,1.20053E-5
654,1.33745,1.2E-5
655,1.3374,1.2E-5
656,1.33736,1.2E-5
657,1.33731,1.1487E-5
658,1.33726,1.1E-5
659,1.33722,1.1E-5
660,1.33717,1.1E-5
661,1.33713,1.09683E-5
662,1.33708,1.03386E-5
663,1.33704,1E-5
664,1.33699,1E-5
665,1.33695,1E-5
666,1.3369,1E-5
667,1.33686,1E-5
668,1.33682,9.55999E-6
669,1.33677,9E-6
670,1.33673,9E-6
671,1.33669,9E-6
672,1.33664,9E-6
673,1.3366,9E-6
674,1.33656,8.78068E-6
675,1.33652,8.15072E-6
676,1.33647,8E-6
677,1.33643,8E-6
678,1.33639,8E-6
679,1.33635,8E-6
680,1.33631,8E-6
681,1.33627,7.37061E-6
682,1.33623,7E-6
683,1.33619,7E-6
684,1.33615,7E-6
685,1.33611,7E-6
686,1.33607,7E-6
687,1.33603,7E-6
688,1.33599,6.95953E-6
689,1.33595,6.32931E-6
690,1.33591,6E-6
691,1.33587,6E-6
692,1.33583,6E-6
693,1.3358,6E-6
694,1.33576,6E-6
695,1.33572,6E-6
696,1.33568,6E-6
697,1.33564,6E-6
698,1.33561,6E-6
699,1.33557,6E-6
700,1.33553,5.39535E-6
701,1.3355,5E-6
702,1.33546,5E-6
703,1.33542,5E-6
704,1.33539,5E-6
705,1.33535,5E-6
706,1.33532,5E-6
707,1.33528,5E-6
708,1.33524,5E-6
709,1.33521,5E-6
710,1.33517,5E-6
711,1.33514,4.45883E-6
712,1.3351,4E-6
713,1.33507,4E-6
714,1.33504,4E-6
715,1.335,4E-6
716,1.33497,4E-6
717,1.33493,4E-6
718,1.3349,4E-6
719,1.33487,4E-6
720,1.33483,4E-6
721,1.3348,4E-6
722,1.33477,4E-6
723,1.33473,4E-6
724,1.3347,4E-6
725,1.33467,4E-6
726,1.33464,3.99561E-6
727,1.3346,3.36456E-6
728,1.33457,3E-6
729,1.33454,3E-6
730,1.33451,3E-6
731,1.33448,3E-6
732,1.33444,3E-6
733,1.33441,3E-6
734,1.33438,3E-6
735,1.33435,3E-6
736,1.33432,3E-6
737,1.33429,3E-6
738,1.33426,3E-6
739,1.33423,3E-6
740,1.3342,3E-6
741,1.33417,3E-6
742,1.33414,3E-6
743,1.33411,3E-6
744,1.33408,3E-6
745,1.33405,3E-6
746,1.33402,3E-6
747,1.33399,3E-6
748,1.33396,3E-6
749,1.33393,2.4751E-6
750,1.3339,2E-6
751,1.33387,2E-6
752,1.33385,2E-6
753,1.33382,2E-6
754,1.33379,2E-6
755,1.33376,2E-6
756,1.33373,2E-6
757,1.3337,2E-6
758,1.33368,2E-6
759,1.33365,2E-6
760,1.33362,2E-6
761,1.33359,2E-6
762,1.33357,2E-6
763,1.33354,2E-6
764,1.33351,2E-6
765,1.33348,2E-6
766,1.33346,2E-6
767,1.33343,2E-6
768,1.3334,2E-6
769,1.33338,2E-6
770,1.33335,2E-6
771,1.33332,2E-6
772,1.3333,2E-6
773,1.33327,2E-6
774,1.33325,2E-6
775,1.33322,2E-6
776,1.33319,2E-6
777,1.33317,2E-6
778,1.33314,2E-6
779,1.33312,2E-6
780,1.33309,2E-6
781,1.33307,2E-6
782,1.33304,2E-6
783,1.33302,1.98556E-6
784,1.33299,1.35302E-6
785,1.33297,1E-6
786,1.33294,1E-6
787,1.33292,1E-6
788,1.3329,1E-6
789,1.33287,1E-6
790,1.33285,1E-6
791,1.33282,1E-6
792,1.3328,1E-6
793,1.33278,1E-6
794,1.33275,1E-6
795,1.33273,1E-6
796,1.3327,1E-6
797,1.33268,1E-6
798,1.33266,1E-6
799,1.33263,1E-6
800,1.33261,1E-6